lenSubsequence: 7{'RI': 0.5143718592964824, 'num_clusters': 7, 'uShapelets': [{'ts_index': 184, 'loc': 6, 'gap': 0.028575454733662298, 'distances': array([0.19412645, 0.16070728, 0.2006427 , 0.17107596, 0.12113347,
       0.21549813, 0.23698168, 0.19736825, 0.21010894, 0.18506667,
       0.22088109, 0.21706968, 0.23438746, 0.20279005, 0.18973483,
       0.15341988, 0.23570558, 0.24559786, 0.13824275, 0.23869161,
       0.15496113, 0.15272141, 0.16117697, 0.19592413, 0.17367646,
       0.21958518, 0.22612081, 0.22500394, 0.08605368, 0.15149726,
       0.22131655, 0.18934955, 0.1752888 , 0.1675818 , 0.2203897 ,
       0.23695068, 0.22583692, 0.18899205, 0.09307986, 0.19416589,
       0.1413257 , 0.26043537, 0.14056941, 0.20623674, 0.16696216,
       0.23540145, 0.20925687, 0.22387805, 0.18848407, 0.16650746,
       0.18462998, 0.22072674, 0.1727343 , 0.19341616, 0.21457447,
       0.21276945, 0.23137176, 0.22641905, 0.22372538, 0.22196326,
       0.21541069, 0.20974799, 0.1948683 , 0.14055139, 0.22574722,
       0.09167941, 0.2398638 , 0.20592983, 0.20475524, 0.24290075,
       0.15540362, 0.13080419, 0.24114395, 0.17143224, 0.19414511,
       0.15939734, 0.2170501 , 0.22165178, 0.1925624 , 0.22072957,
       0.09759176, 0.26233549, 0.1842606 , 0.19407317, 0.16271756,
       0.20928725, 0.21681138, 0.22810931, 0.16067587, 0.15250434,
       0.10392692, 0.17668524, 0.1463757 , 0.24812734, 0.20298342,
       0.2377729 , 0.14352366, 0.19755653, 0.18269267, 0.19906053,
       0.09741935, 0.22994423, 0.14346664, 0.16599164, 0.21543268,
       0.14634454, 0.2179017 , 0.17575459, 0.20212849, 0.24391882,
       0.17926397, 0.21063318, 0.12305345, 0.20752999, 0.25887437,
       0.20977201, 0.22534246, 0.17255313, 0.19737798, 0.22451984,
       0.25740729, 0.20934137, 0.21645791, 0.14948556, 0.1887603 ,
       0.17837815, 0.21386941, 0.21700509, 0.2293925 , 0.26262354,
       0.15560733, 0.23631525, 0.12220957, 0.18729231, 0.26466702,
       0.16120275, 0.21705167, 0.20359107, 0.20244293, 0.18557579,
       0.21086664, 0.25869795, 0.1360995 , 0.18448677, 0.17709434,
       0.15714555, 0.167368  , 0.08316335, 0.17982103, 0.19466876,
       0.19621102, 0.07584938, 0.17324326, 0.20855495, 0.11431643,
       0.17348057, 0.21790734, 0.15772315, 0.13083921, 0.21409027,
       0.15121665, 0.21364172, 0.11926159, 0.22247208, 0.18328528,
       0.1237515 , 0.15059371, 0.12438004, 0.20385652, 0.08549874,
       0.2505761 , 0.20859216, 0.18042364, 0.15245314, 0.20760611,
       0.16564827, 0.17629168, 0.15392244, 0.20248918, 0.22874593,
       0.23246289, 0.17349299, 0.12593059, 0.12029607, 0.        ,
       0.10246725, 0.18564018, 0.18014992, 0.223328  , 0.13770777,
       0.13897081, 0.1405883 , 0.19347288, 0.18623769, 0.12836543,
       0.20430699, 0.23407103, 0.19439394, 0.20977261, 0.11070763]), 'delta_distances': array([0., 0., 0., 0., 0., 0., 0., 0., 0., 0., 0., 0., 0., 0., 0., 0., 0.,
       0., 0., 0., 0., 0., 0., 0., 0., 0., 0., 0., 0., 0., 0., 0., 0., 0.,
       0., 0., 0., 0., 0., 0., 0., 0., 0., 0., 0., 0., 0., 0., 0., 0., 0.,
       0., 0., 0., 0., 0., 0., 0., 0., 0., 0., 0., 0., 0., 0., 0., 0., 0.,
       0., 0., 0., 0., 0., 0., 0., 0., 0., 0., 0., 0., 0., 0., 0., 0., 0.,
       0., 0., 0., 0., 0., 0., 0., 0., 0., 0., 0., 0., 0., 0., 0., 0., 0.,
       0., 0., 0., 0., 0., 0., 0., 0., 0., 0., 0., 0., 0., 0., 0., 0., 0.,
       0., 0., 0., 0., 0., 0., 0., 0., 0., 0., 0., 0., 0., 0., 0., 0., 0.,
       0., 0., 0., 0., 0., 0., 0., 0., 0., 0., 0., 0., 0., 0., 0., 0., 0.,
       0., 0., 0., 0., 0., 0., 0., 0., 0., 0., 0., 0., 0., 0., 0., 0., 0.,
       0., 0., 0., 0., 0., 0., 0., 0., 0., 0., 0., 0., 0., 0., 0., 0., 0.,
       0., 0., 0., 0., 0., 0., 0., 0., 0., 0., 0., 0., 0.]), 'locations': array([29, 77, 86, 41, 51, 63, 10, 85, 60, 63, 86, 56,  6, 19, 10, 76, 31,
       25, 26, 16, 81, 30, 85, 74, 76, 45, 42, 85, 59, 58, 61, 23, 40,  2,
       70, 74, 74,  0, 15, 64, 76, 73,  0, 48, 48, 32, 75, 59, 63, 74, 76,
        1, 79, 20, 23, 72, 30, 24, 49, 71, 24, 86, 33, 43, 34, 51, 34, 46,
        2, 66,  9, 33, 42, 59, 20, 30, 19, 87,  3, 67, 75, 86, 21, 35, 49,
       86, 43, 56, 34, 76, 78, 28, 79, 48, 41, 32, 28, 67, 59, 32,  5, 18,
       78, 41, 72, 74, 82, 73, 53, 58, 40, 59, 28, 32, 40, 51, 74, 73, 60,
       86, 79, 29, 52, 23, 42, 40, 51, 70, 25,  7, 75,  1, 32, 13, 29, 21,
       26, 12,  9, 23, 80, 44, 28,  5, 88, 35, 29,  3, 78, 25,  8, 37,  6,
       60, 60, 35, 54, 64, 31, 41, 64,  1, 84, 59,  2, 25, 65, 29, 31, 74,
       25, 55, 36, 34, 66, 31, 46, 59,  8, 36, 53,  0, 75, 37,  6, 45, 23,
       31, 52, 57, 50,  1, 28, 42,  2, 59, 66, 34, 31, 75])}, {'ts_index': 20, 'loc': 5, 'gap': 0.021621129309833148, 'distances': array([0.15580078, 0.20482278, 0.15898209, 0.22446314, 0.12075182,
       0.12360522, 0.13889161, 0.15799559, 0.16866004, 0.08123742,
       0.12314787, 0.14869811, 0.14417208, 0.18865698, 0.18673113,
       0.13164873, 0.10379288, 0.14340837, 0.        , 0.17959838,
       0.17655136, 0.0775962 , 0.23033653, 0.17084365, 0.20317289,
       0.06688566, 0.14368324, 0.200116  , 0.10905685, 0.16045124,
       0.12709706, 0.08180823, 0.08009417, 0.16127339, 0.13527733,
       0.1891863 , 0.15164224, 0.21460044, 0.12779573, 0.15611094,
       0.16000471, 0.13912289, 0.13815237, 0.10428365, 0.11798966,
       0.09656231, 0.03574574, 0.12395937, 0.14940291, 0.15598994,
       0.18182458, 0.14075783, 0.08880797, 0.07878317, 0.17417442,
       0.11133276, 0.23024856, 0.12105455, 0.15242887, 0.07113602,
       0.17033137, 0.14985183, 0.17444706, 0.14984903, 0.17126926,
       0.07530747, 0.12092028, 0.12435851, 0.09498941, 0.1125905 ,
       0.15149508, 0.11515542, 0.10762161, 0.16327033, 0.18475583,
       0.1395219 , 0.10236017, 0.14167078, 0.09996218, 0.12412149,
       0.09191598, 0.17417392, 0.1600496 , 0.17475202, 0.1345647 ,
       0.14100735, 0.17649122, 0.20248034, 0.14925462, 0.19624597,
       0.13878854, 0.16191742, 0.20020408, 0.13006574, 0.18865351,
       0.15959992, 0.16818626, 0.14356143, 0.16818827, 0.19416272,
       0.16941475, 0.20944332, 0.16346585, 0.18031686, 0.13649522,
       0.15527139, 0.11867399, 0.1560951 , 0.0855675 , 0.18081137,
       0.13199263, 0.11808469, 0.11670815, 0.18708128, 0.16017449,
       0.1870099 , 0.15087174, 0.22243462, 0.16851431, 0.14772203,
       0.18804723, 0.17323032, 0.19785536, 0.16414881, 0.13442418,
       0.12215788, 0.18487392, 0.10091363, 0.18899302, 0.20495489,
       0.19495636, 0.15450944, 0.11066833, 0.10427425, 0.13626942,
       0.09436357, 0.09880246, 0.124648  , 0.13667082, 0.21293211,
       0.1326934 , 0.13391028, 0.16913464, 0.19814277, 0.12253468,
       0.15302943, 0.11355497, 0.15526212, 0.07725291, 0.14059951,
       0.15212085, 0.1109961 , 0.10382612, 0.14040694, 0.12146376,
       0.14559227, 0.18386632, 0.15030308, 0.20395205, 0.16427474,
       0.13515973, 0.17696783, 0.12109765, 0.10357616, 0.10402382]), 'delta_distances': array([0., 0., 0., 0., 0., 0., 0., 0., 0., 0., 0., 0., 0., 0., 0., 0., 0.,
       0., 0., 0., 0., 0., 0., 0., 0., 0., 0., 0., 0., 0., 0., 0., 0., 0.,
       0., 0., 0., 0., 0., 0., 0., 0., 0., 0., 0., 0., 0., 0., 0., 0., 0.,
       0., 0., 0., 0., 0., 0., 0., 0., 0., 0., 0., 0., 0., 0., 0., 0., 0.,
       0., 0., 0., 0., 0., 0., 0., 0., 0., 0., 0., 0., 0., 0., 0., 0., 0.,
       0., 0., 0., 0., 0., 0., 0., 0., 0., 0., 0., 0., 0., 0., 0., 0., 0.,
       0., 0., 0., 0., 0., 0., 0., 0., 0., 0., 0., 0., 0., 0., 0., 0., 0.,
       0., 0., 0., 0., 0., 0., 0., 0., 0., 0., 0., 0., 0., 0., 0., 0., 0.,
       0., 0., 0., 0., 0., 0., 0., 0., 0., 0., 0., 0., 0., 0., 0., 0., 0.,
       0., 0., 0., 0., 0., 0., 0., 0., 0., 0., 0., 0.]), 'locations': array([73, 68, 72, 80, 50, 19, 60, 51, 41, 19, 16, 68, 14, 59, 73, 65, 55,
       50,  5, 40, 15, 23, 18, 65, 73, 65, 73, 23, 10, 33, 87, 53, 20, 77,
       39, 74, 49, 53, 46, 82, 83, 85, 16, 14, 66, 11, 54, 82, 49, 64, 29,
       48, 59, 88, 56, 41, 59, 49, 62, 26, 43, 54, 32, 64, 64, 43, 66, 59,
       21, 62, 68, 23, 47, 15, 70, 61, 19, 61, 53, 47, 55, 61, 31, 72, 55,
       85, 39, 23, 41, 30, 66, 75, 33, 52, 46, 18, 23, 52, 81, 40, 52, 52,
       15, 14, 53, 56, 23, 17, 16, 35, 27, 72, 28, 46, 62, 60, 24, 43, 71,
       34, 55, 20, 44,  4, 73, 64, 44, 27, 85, 65, 45, 29, 19, 62, 30, 40,
       24, 58, 20, 70, 73, 13, 33, 42, 82, 26, 74, 74, 69, 44, 16, 43, 26,
       10, 48, 41, 20, 52, 38, 18, 27, 61, 39, 67, 40])}, {'ts_index': 39, 'loc': 5, 'gap': 0.026636784934940094, 'distances': array([0.2571798 , 0.1995126 , 0.20922097, 0.23256054, 0.28008189,
       0.30395597, 0.21127237, 0.        , 0.31358771, 0.26087472,
       0.26369328, 0.32138204, 0.3221066 , 0.16178651, 0.32947169,
       0.29771022, 0.28940533, 0.30910467, 0.27698196, 0.1924845 ,
       0.28515912, 0.26443316, 0.26571701, 0.30515759, 0.30538022,
       0.29164815, 0.24946189, 0.18152826]), 'delta_distances': array([0., 0., 0., 0., 0., 0., 0., 0., 0., 0., 0., 0., 0., 0., 0., 0., 0.,
       0., 0., 0., 0., 0., 0., 0., 0., 0., 0., 0.]), 'locations': array([ 2,  2, 69, 42, 35,  7, 79,  5,  2, 76,  3, 50, 11, 78,  9,  2,  2,
       76,  4,  2,  3, 28, 30, 66, 56,  3, 78, 31])}, {'ts_index': 168, 'loc': 20, 'gap': 0.02560628777660534, 'distances': array([0.18305668, 0.1736678 , 0.20122679, 0.12716284, 0.20751128,
       0.19203632, 0.21957522, 0.06120732, 0.18206395, 0.18712335,
       0.18914151, 0.129539  , 0.22227778, 0.23329152, 0.20554999,
       0.19030365, 0.18229837, 0.21638302, 0.22412063, 0.18693598,
       0.        ]), 'delta_distances': array([0., 0., 0., 0., 0., 0., 0., 0., 0., 0., 0., 0., 0., 0., 0., 0., 0.,
       0., 0., 0., 0.]), 'locations': array([53, 60, 10, 81, 22, 62, 67, 32, 28, 44, 24, 47, 62, 59, 13, 66, 46,
       63, 58, 16, 20])}, {'ts_index': 117, 'loc': 17, 'gap': 0.02643806860659928, 'distances': array([0.19620384, 0.20092711, 0.19727599, 0.18996058, 0.22292161,
       0.20577364, 0.19655797, 0.        , 0.18112483, 0.11297093,
       0.20575681, 0.22041249, 0.20227521, 0.20651014, 0.11601089,
       0.23468047]), 'delta_distances': array([0., 0., 0., 0., 0., 0., 0., 0., 0., 0., 0., 0., 0., 0., 0., 0.]), 'locations': array([45, 19, 63, 63, 65, 78, 81, 17, 51, 49, 70, 22, 82, 16, 61, 36])}, {'ts_index': 148, 'loc': 38, 'gap': 0.02985919673754428, 'distances': array([0.26021514, 0.21864777, 0.22058345, 0.2189026 , 0.20981512,
       0.15552921, 0.15279747, 0.21362049, 0.19486627, 0.21852544,
       0.        , 0.12570862]), 'delta_distances': array([0., 0., 0., 0., 0., 0., 0., 0., 0., 0., 0., 0.]), 'locations': array([64, 87, 12, 38, 64, 44,  5, 50, 75, 24, 38, 77])}, {'ts_index': 24, 'loc': 89, 'gap': 0.050363505388986235, 'distances': array([0.2358652 , 0.18182665, 0.18037402, 0.25129145, 0.15618665,
       0.18837462, 0.18155617, 0.25708939]), 'delta_distances': array([0., 0., 0., 0., 0., 0., 0., 0.]), 'locations': array([71, 65, 76, 34, 39, 58, 64,  5])}], 'clusters': array([2, 0, 2, 3, 1, 2, 2, 2, 2, 2, 2, 2, 2, 2, 3, 4, 2, 2, 1, 2, 2, 2,
       2, 2, 7, 2, 4, 2, 1, 2, 3, 2, 2, 2, 2, 2, 2, 2, 1, 3, 1, 2, 1, 7,
       2, 2, 2, 2, 2, 2, 2, 2, 2, 2, 2, 2, 2, 2, 2, 2, 2, 2, 0, 1, 2, 1,
       2, 2, 2, 2, 2, 1, 2, 2, 2, 2, 2, 2, 2, 2, 1, 2, 2, 2, 2, 2, 2, 2,
       2, 2, 1, 2, 2, 2, 2, 2, 1, 2, 2, 7, 1, 2, 1, 4, 2, 1, 2, 6, 2, 3,
       2, 2, 1, 2, 2, 6, 2, 5, 2, 2, 2, 2, 2, 2, 2, 2, 2, 2, 2, 4, 2, 5,
       1, 2, 5, 2, 2, 3, 2, 7, 2, 2, 1, 2, 7, 2, 0, 1, 6, 5, 2, 1, 2, 2,
       1, 2, 2, 2, 1, 2, 2, 6, 1, 2, 2, 1, 2, 1, 4, 1, 2, 2, 2, 2, 2, 2,
       2, 2, 2, 2, 2, 2, 1, 1, 1, 1, 2, 2, 3, 1, 1, 1, 2, 2, 1, 2, 2, 2,
       2, 1]), 'time': 464.38448905944824}
lenSubsequence: 8{'RI': 0.49165829145728646, 'num_clusters': 3, 'uShapelets': [{'ts_index': 32, 'loc': 15, 'gap': 0.11159244930568159, 'distances': array([0.24582299, 0.09487038, 0.10144828, 0.26333701, 0.24702088,
       0.24385207, 0.26986759, 0.23681025, 0.04533016, 0.21539099,
       0.04964482, 0.25502095, 0.19870943, 0.24050226, 0.26421926,
       0.01490435, 0.23797828, 0.2094785 , 0.24009375, 0.03480499,
       0.15563731, 0.26686815, 0.05228331, 0.038016  , 0.0649865 ,
       0.05038491, 0.06282731, 0.24844131, 0.22567726, 0.09892638,
       0.06727935, 0.25955535, 0.        , 0.11781171, 0.22658055,
       0.05694841, 0.03517203, 0.26688063, 0.10065039, 0.18645215,
       0.25796038, 0.2382803 , 0.2645035 , 0.02696174, 0.2578897 ,
       0.06926881, 0.20625631, 0.25745288, 0.00720251, 0.23320234,
       0.14164805, 0.04821618, 0.11592352, 0.2602786 , 0.25871689,
       0.08668767, 0.07732717, 0.03633162, 0.26908697, 0.26197049,
       0.10556546, 0.06644087, 0.12717749, 0.22449709, 0.02409159,
       0.01522797, 0.25807483, 0.24124659, 0.09248644, 0.06701396,
       0.1876572 , 0.07317171, 0.18584512, 0.25877133, 0.02640192,
       0.2402874 , 0.23361811, 0.20064433, 0.08436099, 0.17572525,
       0.26714825, 0.1641901 , 0.20893296, 0.01754047, 0.23932087,
       0.12767542, 0.22344466, 0.0894111 , 0.25871411, 0.0915813 ,
       0.25737873, 0.12927103, 0.03597207, 0.22750642, 0.25715255,
       0.26082818, 0.26535601, 0.04199582, 0.03922331, 0.04720872,
       0.25958322, 0.2375906 , 0.21042576, 0.21841013, 0.24799855,
       0.22833499, 0.2204037 , 0.25488265, 0.08380563, 0.10915716,
       0.02508349, 0.06019396, 0.23251897, 0.25315997, 0.0327037 ,
       0.25184351, 0.10260042, 0.2282929 , 0.2551244 , 0.26851829,
       0.26398815, 0.16577807, 0.22909959, 0.12276482, 0.12670497,
       0.25848447, 0.26175211, 0.25798636, 0.24699438, 0.02455144,
       0.03863213, 0.18055598, 0.26415839, 0.05326726, 0.04770772,
       0.23554117, 0.07267277, 0.25954906, 0.02355799, 0.01936661,
       0.14740039, 0.01546169, 0.25202466, 0.05478582, 0.24709652,
       0.26362978, 0.23752018, 0.09694698, 0.25020548, 0.26132984,
       0.20214678, 0.12627439, 0.26108228, 0.26863135, 0.25145752,
       0.19917503, 0.10253383, 0.22074918, 0.24955554, 0.07783799,
       0.25946951, 0.08624681, 0.03708986, 0.04522235, 0.23747917,
       0.26227091, 0.16578117, 0.26115449, 0.04013624, 0.26263595,
       0.2278048 , 0.0646893 , 0.0391948 , 0.06095561, 0.02043851,
       0.23106151, 0.19989411, 0.03289137, 0.04588738, 0.22636745,
       0.26791139, 0.10143555, 0.01508787, 0.26796785, 0.26737042,
       0.25462359, 0.24346075, 0.07417343, 0.2455532 , 0.0345435 ,
       0.23195789, 0.07375063, 0.07360195, 0.06070807, 0.24944566,
       0.142691  , 0.22690902, 0.26758701, 0.23132296, 0.26122857]), 'delta_distances': array([0., 0., 0., 0., 0., 0., 0., 0., 0., 0., 0., 0., 0., 0., 0., 0., 0.,
       0., 0., 0., 0., 0., 0., 0., 0., 0., 0., 0., 0., 0., 0., 0., 0., 0.,
       0., 0., 0., 0., 0., 0., 0., 0., 0., 0., 0., 0., 0., 0., 0., 0., 0.,
       0., 0., 0., 0., 0., 0., 0., 0., 0., 0., 0., 0., 0., 0., 0., 0., 0.,
       0., 0., 0., 0., 0., 0., 0., 0., 0., 0., 0., 0., 0., 0., 0., 0., 0.,
       0., 0., 0., 0., 0., 0., 0., 0., 0., 0., 0., 0., 0., 0., 0., 0., 0.,
       0., 0., 0., 0., 0., 0., 0., 0., 0., 0., 0., 0., 0., 0., 0., 0., 0.,
       0., 0., 0., 0., 0., 0., 0., 0., 0., 0., 0., 0., 0., 0., 0., 0., 0.,
       0., 0., 0., 0., 0., 0., 0., 0., 0., 0., 0., 0., 0., 0., 0., 0., 0.,
       0., 0., 0., 0., 0., 0., 0., 0., 0., 0., 0., 0., 0., 0., 0., 0., 0.,
       0., 0., 0., 0., 0., 0., 0., 0., 0., 0., 0., 0., 0., 0., 0., 0., 0.,
       0., 0., 0., 0., 0., 0., 0., 0., 0., 0., 0., 0., 0.]), 'locations': array([75, 82, 50, 81,  6,  5, 47,  5, 78,  9, 70, 26, 37, 49,  7, 10,  2,
        3, 28, 82, 41, 30,  4,  6, 50, 73,  8,  6, 61, 85,  6,  5, 15, 61,
        0, 46,  3,  2, 87, 11, 87, 35, 78, 70,  6,  8,  6, 42, 86,  3, 78,
       46, 14, 45, 77, 81, 81, 14, 33, 14, 45,  4, 78, 80, 18, 11, 33,  5,
        6,  5, 78,  8, 84, 65,  7, 85, 85,  6,  9,  7,  1,  7, 28, 83,  9,
       40, 77, 50, 87, 86, 77, 41, 14, 76,  6,  6,  5, 17, 75, 82, 10, 25,
        8, 13, 76,  6,  6, 86, 86, 83, 11, 10, 42, 33, 12, 65,  5, 75, 37,
       13, 34,  6,  7, 59, 86, 70, 32, 48,  8,  8,  7,  5, 76,  8,  5, 63,
       71, 33,  9,  7,  9,  9,  3, 14, 33, 87, 59, 72, 34,  5, 80, 83, 33,
       44, 78,  4, 83,  9, 87, 85, 64, 61, 86, 80,  6, 27,  5, 78, 84,  6,
        6, 83, 50,  8, 79,  4,  5, 78, 67,  6,  9, 70,  9,  6, 20,  8, 71,
        9,  8, 80, 54,  3,  9,  7, 39, 11, 82, 78,  4, 34])}, {'ts_index': 5, 'loc': 22, 'gap': 0.12630732161815597, 'distances': array([0.29002009, 0.23214221, 0.2433661 , 0.        , 0.1540989 ,
       0.30840546, 0.29708016, 0.30314923, 0.31174153, 0.30349058,
       0.30934924, 0.10592038, 0.10526866, 0.07869151, 0.24672919,
       0.30725942, 0.17546842, 0.04708811, 0.31152137, 0.29047098,
       0.0040052 , 0.28499898, 0.25019734, 0.33366295, 0.10456369,
       0.31035686, 0.2881929 , 0.31139275, 0.21945916, 0.31268544,
       0.29595013, 0.31350724, 0.29150757, 0.21344855, 0.2964398 ,
       0.24508884, 0.26694456, 0.28475063, 0.17504442, 0.16793071,
       0.27501885, 0.00184485, 0.29343333, 0.31251519, 0.31085393,
       0.31243688, 0.28511865, 0.06791215, 0.29454015, 0.29864517,
       0.21053284, 0.22210877, 0.31009132, 0.30900242, 0.28355699,
       0.28436399, 0.27794574, 0.05267079, 0.22692901, 0.2911428 ,
       0.19975381, 0.21837175, 0.22705455, 0.30896139, 0.26116023,
       0.29728888, 0.04173121, 0.30698572, 0.14596177, 0.03400728,
       0.23702483, 0.3049395 , 0.30838224, 0.28387065, 0.27053397,
       0.27993311, 0.05265952, 0.27918783, 0.30441326, 0.30286626,
       0.30453449, 0.23199934, 0.15275369, 0.31932884, 0.30227307,
       0.08457522, 0.08241463, 0.04195984, 0.16496236, 0.2332846 ,
       0.26699374, 0.27332575, 0.30001623, 0.27845198, 0.27351467,
       0.20120924, 0.29761262, 0.00356059, 0.30139724, 0.16208234,
       0.31371717, 0.03860386, 0.03916806, 0.30379376, 0.32002329,
       0.27940292, 0.2257819 , 0.3038043 , 0.30730184, 0.25485372,
       0.20175267, 0.30235625, 0.27428112, 0.29799533]), 'delta_distances': array([0., 0., 0., 0., 0., 0., 0., 0., 0., 0., 0., 0., 0., 0., 0., 0., 0.,
       0., 0., 0., 0., 0., 0., 0., 0., 0., 0., 0., 0., 0., 0., 0., 0., 0.,
       0., 0., 0., 0., 0., 0., 0., 0., 0., 0., 0., 0., 0., 0., 0., 0., 0.,
       0., 0., 0., 0., 0., 0., 0., 0., 0., 0., 0., 0., 0., 0., 0., 0., 0.,
       0., 0., 0., 0., 0., 0., 0., 0., 0., 0., 0., 0., 0., 0., 0., 0., 0.,
       0., 0., 0., 0., 0., 0., 0., 0., 0., 0., 0., 0., 0., 0., 0., 0., 0.,
       0., 0., 0., 0., 0., 0., 0., 0., 0., 0., 0., 0.]), 'locations': array([77, 49,  5, 22, 34, 47, 13, 83, 18, 57, 73, 47, 22, 17, 42, 36, 17,
       66, 35, 34, 22, 10,  5, 52,  9, 76, 11, 48, 61, 14,  2, 33, 14, 79,
       21,  4, 66, 87, 23, 26, 86, 26,  8,  1,  6,  2, 48, 28, 78, 81,  5,
       10, 71, 79,  9,  2, 34, 36, 80,  3, 40, 49, 20, 76, 68, 75, 14, 11,
       57, 24,  5,  3,  3,  8,  2,  6, 21, 80, 84,  4, 35, 26, 18, 83, 67,
       22, 55, 60, 44, 22, 60, 84, 79,  6, 46, 23, 19, 23, 51,  7, 65, 26,
       60, 42, 87,  7, 72, 80,  5,  6, 13, 41,  4, 85])}], 'clusters': array([0, 1, 1, 0, 0, 2, 0, 0, 1, 0, 1, 0, 0, 0, 0, 1, 2, 2, 2, 1, 0, 0,
       1, 1, 1, 1, 1, 0, 2, 1, 1, 0, 1, 1, 0, 1, 1, 2, 1, 0, 0, 0, 2, 1,
       0, 1, 0, 0, 1, 0, 1, 1, 1, 0, 0, 1, 1, 1, 0, 0, 1, 1, 1, 0, 1, 1,
       0, 0, 1, 1, 0, 1, 0, 0, 1, 0, 0, 2, 1, 0, 0, 0, 0, 1, 0, 1, 2, 1,
       0, 1, 0, 1, 1, 0, 0, 0, 0, 1, 1, 1, 0, 0, 0, 2, 0, 0, 0, 0, 1, 1,
       1, 1, 0, 0, 1, 0, 1, 0, 2, 0, 2, 2, 0, 1, 1, 0, 0, 0, 0, 1, 1, 0,
       2, 1, 1, 0, 1, 0, 1, 1, 1, 1, 0, 1, 0, 0, 2, 1, 0, 0, 2, 1, 2, 2,
       0, 0, 1, 0, 0, 1, 0, 1, 1, 1, 0, 0, 0, 0, 1, 2, 0, 1, 1, 1, 1, 0,
       0, 1, 1, 2, 2, 1, 1, 0, 0, 0, 0, 1, 0, 1, 0, 1, 1, 1, 0, 1, 0, 0,
       0, 0]), 'time': 467.397634267807}
lenSubsequence: 9{'RI': 0.49462311557788946, 'num_clusters': 5, 'uShapelets': [{'ts_index': 15, 'loc': 27, 'gap': 0.014300064838734056, 'distances': array([0.09582815, 0.06458717, 0.09547107, 0.08244893, 0.08876354,
       0.07917989, 0.01529444, 0.07673803, 0.09177206, 0.09748535,
       0.05067643, 0.07067512, 0.05067952, 0.04265794, 0.09149055,
       0.        , 0.07738667, 0.00628804, 0.0714515 , 0.07596291,
       0.07537152, 0.07841838, 0.08191312, 0.0898962 , 0.06019033,
       0.07319785, 0.10080309, 0.0777762 , 0.08932966, 0.02805242,
       0.02169095, 0.0359958 , 0.09417214, 0.03699622, 0.05744113,
       0.08743204, 0.05381107, 0.08294577, 0.072827  , 0.10089368,
       0.05722511, 0.10751954, 0.08920478, 0.0761759 , 0.07007191,
       0.08406659, 0.05825372, 0.09783483, 0.09441568, 0.0599341 ,
       0.05317893, 0.05201372, 0.11645868, 0.09137827, 0.04525865,
       0.07478425, 0.08239843, 0.06657567, 0.09288045, 0.08477983,
       0.07695656, 0.04648229, 0.08525835, 0.06276974, 0.10742414,
       0.09669767, 0.09257416, 0.08121732, 0.06378003, 0.06386549,
       0.08090231, 0.08035785, 0.08152956, 0.08995967, 0.08470918,
       0.08444728, 0.08531327, 0.04693787, 0.05308727, 0.10243083,
       0.06513806, 0.09081714, 0.06288411, 0.09112648, 0.00291435,
       0.05480209, 0.10426537, 0.09765456, 0.0685166 , 0.07552149,
       0.01191782, 0.06215028, 0.1011238 , 0.06461631, 0.14211747,
       0.03810001, 0.08914451, 0.11282772, 0.06409506, 0.08743812,
       0.11381852, 0.04989234, 0.11493005, 0.06655201, 0.07861972,
       0.06395783, 0.11575221, 0.08563528, 0.04877158, 0.04430729,
       0.09910084, 0.08035134, 0.06455828, 0.03769992, 0.11389409,
       0.07967688, 0.07285139, 0.10409561, 0.10215038, 0.07233885,
       0.02567565, 0.08412193, 0.06313812, 0.07974022, 0.03896348,
       0.06691767, 0.10122974, 0.10326928, 0.05367345, 0.06555408,
       0.06654002, 0.0416823 , 0.08462005, 0.02514912, 0.07094158,
       0.09842452, 0.03807263, 0.07749603, 0.13702129, 0.04900204,
       0.09976214, 0.11494812, 0.04442174, 0.09021441, 0.06458253,
       0.06266666, 0.01108901, 0.06567013, 0.08793067, 0.06829733,
       0.09467086, 0.06133454, 0.06918485, 0.09631344, 0.06598194,
       0.09559286, 0.07040336, 0.11498148, 0.09585233, 0.0685333 ,
       0.08943272, 0.03582764, 0.05251895, 0.05577651, 0.07536185,
       0.09130923, 0.08951497, 0.04909765, 0.08564058, 0.06559673,
       0.12412896, 0.0544523 , 0.09347018, 0.07726339, 0.07181907,
       0.0650435 , 0.09438092, 0.10503055, 0.09068042, 0.03783644,
       0.10917934, 0.06919829, 0.05958401, 0.10339937, 0.10618748,
       0.10728719, 0.0532417 , 0.05042026, 0.06701815, 0.08795409,
       0.1307596 , 0.0972466 , 0.0647746 , 0.10009676, 0.05280954,
       0.0973928 , 0.08349229, 0.11093628, 0.10302558, 0.06955768]), 'delta_distances': array([0., 0., 0., 0., 0., 0., 0., 0., 0., 0., 0., 0., 0., 0., 0., 0., 0.,
       0., 0., 0., 0., 0., 0., 0., 0., 0., 0., 0., 0., 0., 0., 0., 0., 0.,
       0., 0., 0., 0., 0., 0., 0., 0., 0., 0., 0., 0., 0., 0., 0., 0., 0.,
       0., 0., 0., 0., 0., 0., 0., 0., 0., 0., 0., 0., 0., 0., 0., 0., 0.,
       0., 0., 0., 0., 0., 0., 0., 0., 0., 0., 0., 0., 0., 0., 0., 0., 0.,
       0., 0., 0., 0., 0., 0., 0., 0., 0., 0., 0., 0., 0., 0., 0., 0., 0.,
       0., 0., 0., 0., 0., 0., 0., 0., 0., 0., 0., 0., 0., 0., 0., 0., 0.,
       0., 0., 0., 0., 0., 0., 0., 0., 0., 0., 0., 0., 0., 0., 0., 0., 0.,
       0., 0., 0., 0., 0., 0., 0., 0., 0., 0., 0., 0., 0., 0., 0., 0., 0.,
       0., 0., 0., 0., 0., 0., 0., 0., 0., 0., 0., 0., 0., 0., 0., 0., 0.,
       0., 0., 0., 0., 0., 0., 0., 0., 0., 0., 0., 0., 0., 0., 0., 0., 0.,
       0., 0., 0., 0., 0., 0., 0., 0., 0., 0., 0., 0., 0.]), 'locations': array([63, 63, 61, 77, 76, 83, 29, 31, 57, 15, 40,  1, 21, 39,  6, 27, 75,
       20, 84, 35, 59, 27, 82, 18, 16, 55, 37, 17, 81, 86, 55,  8, 26, 84,
       37, 84, 74,  0, 58, 82, 63, 74, 56, 67, 50, 62, 64, 83, 76, 56, 21,
       68, 22,  7, 38, 74, 75, 55, 25, 46, 31,  5, 48, 73, 33, 82, 50, 82,
       44, 65, 83, 38,  2, 60, 77, 78, 75,  7, 65, 13, 66, 73, 34, 47, 35,
       44, 85, 10, 82, 69, 84, 64, 31, 75,  3, 16, 86, 73, 81, 13, 56, 48,
        9, 77, 51, 60, 31,  8, 45, 81, 35, 36, 46, 86, 50,  4, 43, 76, 78,
       51, 56, 81, 63, 51, 14, 53, 37, 59,  8, 81, 60, 70, 84, 86, 62, 43,
       41, 60, 15, 85, 32, 18, 83, 84, 85, 82, 66, 66, 66, 54, 55, 82, 24,
       47, 62, 12, 39, 59, 66, 59, 49, 84, 80, 63, 81, 25, 42, 83, 66, 84,
       23, 84, 51, 84, 68, 27, 83, 17, 58, 23, 50, 31, 82, 68, 40, 82, 44,
       83, 34, 37, 64, 13, 49, 84,  7, 41, 55, 50, 16,  6])}, {'ts_index': 72, 'loc': 20, 'gap': 0.10856492044191729, 'distances': array([0.28843627, 0.22327269, 0.00607499, 0.28200008, 0.15885041,
       0.18077211, 0.2590659 , 0.28431075, 0.28436397, 0.27635198,
       0.28628433, 0.22050948, 0.28001952, 0.24618698, 0.25091769,
       0.29079472, 0.29011092, 0.2239405 , 0.24801205, 0.26434733,
       0.29328507, 0.24023899, 0.25075745, 0.22635738, 0.27699989,
       0.27205147, 0.02588081, 0.12576661, 0.27612516, 0.26189598,
       0.25151821, 0.28356878, 0.26780534, 0.04721134, 0.2754238 ,
       0.25977203, 0.25857622, 0.15413618, 0.14830087, 0.24240299,
       0.15714885, 0.26700373, 0.28947777, 0.19288275, 0.09205229,
       0.28179197, 0.0386804 , 0.1845507 , 0.24077574, 0.22289577,
       0.12544364, 0.0847898 , 0.28487226, 0.27349162, 0.21159191,
       0.27797616, 0.21338459, 0.27756576, 0.26177564, 0.        ,
       0.18399475, 0.27438395, 0.25390034, 0.09365891, 0.27223557,
       0.26724188, 0.28291527, 0.22157612, 0.28880953, 0.20017915,
       0.14912688, 0.00887432, 0.27391553, 0.28902016, 0.25330111,
       0.27321008, 0.16072743, 0.17573379, 0.26675965, 0.28975188,
       0.28667445, 0.20229939, 0.05634988, 0.27371197, 0.28656006,
       0.02436591, 0.27088088, 0.24547714, 0.12542411, 0.27293789,
       0.25767548, 0.16788463, 0.29045315, 0.23489014, 0.28617006,
       0.27080508, 0.25669613, 0.0191711 , 0.28807978, 0.01215   ,
       0.1920184 , 0.03165737, 0.13899017, 0.01844347, 0.28103364,
       0.23662351, 0.24392376, 0.19164565, 0.14877807, 0.22762478,
       0.22337034, 0.27897116, 0.01755037, 0.26821285, 0.13259171,
       0.28341443, 0.28270047, 0.28884738, 0.00320262, 0.29544318,
       0.27849378, 0.24785745, 0.28182497, 0.06629924, 0.01217179,
       0.26673953, 0.162889  , 0.27582133, 0.28326825, 0.25120084,
       0.26593695, 0.2791146 , 0.16894546, 0.19931854, 0.16986436,
       0.25162296, 0.03006784, 0.2791519 , 0.27863432, 0.26444607,
       0.10063874, 0.04084345, 0.13712679, 0.24164785, 0.26861101,
       0.23156601, 0.29068376, 0.14225142, 0.27930266, 0.23843957,
       0.29280937, 0.28967416, 0.22424174, 0.22875542, 0.27579412,
       0.27175112, 0.28995798, 0.10072031, 0.21736623, 0.10018054,
       0.11558376, 0.01910691, 0.27756803, 0.24442091, 0.28993863]), 'delta_distances': array([0., 0., 0., 0., 0., 0., 0., 0., 0., 0., 0., 0., 0., 0., 0., 0., 0.,
       0., 0., 0., 0., 0., 0., 0., 0., 0., 0., 0., 0., 0., 0., 0., 0., 0.,
       0., 0., 0., 0., 0., 0., 0., 0., 0., 0., 0., 0., 0., 0., 0., 0., 0.,
       0., 0., 0., 0., 0., 0., 0., 0., 0., 0., 0., 0., 0., 0., 0., 0., 0.,
       0., 0., 0., 0., 0., 0., 0., 0., 0., 0., 0., 0., 0., 0., 0., 0., 0.,
       0., 0., 0., 0., 0., 0., 0., 0., 0., 0., 0., 0., 0., 0., 0., 0., 0.,
       0., 0., 0., 0., 0., 0., 0., 0., 0., 0., 0., 0., 0., 0., 0., 0., 0.,
       0., 0., 0., 0., 0., 0., 0., 0., 0., 0., 0., 0., 0., 0., 0., 0., 0.,
       0., 0., 0., 0., 0., 0., 0., 0., 0., 0., 0., 0., 0., 0., 0., 0., 0.,
       0., 0., 0., 0., 0., 0., 0., 0., 0., 0., 0., 0.]), 'locations': array([66,  4, 84,  4, 31, 81,  4, 86, 10, 82, 73,  3, 43, 81, 85,  4,  3,
       84, 69, 78,  2,  4, 16, 11, 35, 42, 20, 24, 60, 10, 80, 45, 16, 16,
       37, 85,  4, 55, 18, 82, 22, 11, 50, 85, 22, 33, 10, 31, 42,  4, 18,
       41, 54, 21,  4,  4, 83, 68,  6, 20, 66,  4, 24, 14,  4,  6, 82,  7,
        2, 83, 23, 17, 52, 86,  6, 84, 12,  5,  6,  3, 82, 76, 24,  8, 48,
       35, 66,  3, 67, 12,  7,  8, 39, 12, 36,  4, 19, 13, 60, 23,  5, 16,
       18, 60, 53,  2,  6, 82, 53,  7, 65, 74, 35, 33, 42, 53, 84, 78, 31,
        3, 62, 77,  4, 54, 59, 68, 23, 44, 83, 86,  4, 68,  5,  6, 14,  4,
       20, 74, 50, 79, 36, 57, 15,  4,  4, 78, 12, 13, 62, 66,  6,  9,  7,
       61, 55, 78, 10,  6,  7, 85, 12, 11, 60,  4, 85])}, {'ts_index': 180, 'loc': 13, 'gap': 0.06534320644215852, 'distances': array([0.30150525, 0.19870727, 0.29672123, 0.01910899, 0.14915684,
       0.21652046, 0.30183179, 0.21448244, 0.29484068, 0.30070206,
       0.19670435, 0.29556613, 0.2127452 , 0.21065595, 0.29763972,
       0.29605765, 0.19752904, 0.1716391 , 0.21713733, 0.30442255,
       0.28457583, 0.30136664, 0.18999614, 0.28591073, 0.22266448,
       0.29190452, 0.2820183 , 0.21459435, 0.30622552, 0.30133728,
       0.22900186, 0.25457324, 0.20390176, 0.01758923, 0.00798472,
       0.22001665, 0.01696112, 0.19918393, 0.25793344, 0.11643323,
       0.29361525, 0.04946381, 0.20359345, 0.19962212, 0.23369626,
       0.23189865, 0.16857766, 0.24920639, 0.15850467, 0.22837856,
       0.25373922, 0.13767109, 0.2869066 , 0.27391911, 0.21216877,
       0.28391584, 0.29263445, 0.2094409 , 0.28665255, 0.17668458,
       0.00891339, 0.30258686, 0.29421711, 0.22359997, 0.2500885 ,
       0.20549417, 0.15170244, 0.27144308, 0.30118083, 0.24092517,
       0.16872187, 0.22596528, 0.30581404, 0.27861106, 0.1747502 ,
       0.21989298, 0.21940888, 0.1546564 , 0.27841309, 0.19076166,
       0.29834717, 0.28844335, 0.2300834 , 0.23920028, 0.17905733,
       0.00660432, 0.3050982 , 0.2865819 , 0.1962241 , 0.15189894,
       0.01494432, 0.20430962, 0.18556939, 0.29737481, 0.2461477 ,
       0.02776366, 0.30036543, 0.29299341, 0.29168336, 0.30001126,
       0.24411625, 0.17528729, 0.24418252, 0.29300697, 0.02363562,
       0.29364469, 0.22673125, 0.30075986, 0.21395174, 0.30136118,
       0.1193488 , 0.15481397, 0.03196368, 0.25011545, 0.29345118,
       0.30983053, 0.25855336, 0.00620378, 0.26585578, 0.19846161,
       0.18134148, 0.30156252, 0.        , 0.29496862, 0.20658792,
       0.30513436, 0.21788244, 0.20413721, 0.19653839, 0.2938862 ,
       0.21270784, 0.30460227, 0.15235732, 0.30694323, 0.25397283,
       0.24551736]), 'delta_distances': array([0., 0., 0., 0., 0., 0., 0., 0., 0., 0., 0., 0., 0., 0., 0., 0., 0.,
       0., 0., 0., 0., 0., 0., 0., 0., 0., 0., 0., 0., 0., 0., 0., 0., 0.,
       0., 0., 0., 0., 0., 0., 0., 0., 0., 0., 0., 0., 0., 0., 0., 0., 0.,
       0., 0., 0., 0., 0., 0., 0., 0., 0., 0., 0., 0., 0., 0., 0., 0., 0.,
       0., 0., 0., 0., 0., 0., 0., 0., 0., 0., 0., 0., 0., 0., 0., 0., 0.,
       0., 0., 0., 0., 0., 0., 0., 0., 0., 0., 0., 0., 0., 0., 0., 0., 0.,
       0., 0., 0., 0., 0., 0., 0., 0., 0., 0., 0., 0., 0., 0., 0., 0., 0.,
       0., 0., 0., 0., 0., 0., 0., 0., 0., 0., 0., 0., 0., 0., 0., 0., 0.]), 'locations': array([ 4, 79, 77, 31, 81,  4, 57, 10,  1,  6,  3, 84, 81, 39, 27,  3, 84,
       69, 72, 37,  3, 81, 11, 69,  7, 84, 10, 80, 74, 56,  5,  6,  4, 55,
       18, 82, 22, 11,  9, 85, 55, 31, 42,  4,  9,  4,  4,  6, 83, 67,  6,
       66,  3, 81,  4,  8, 66,  7, 34, 83, 23, 10, 82,  4, 39, 12,  5,  6,
       86, 15, 76,  8,  8, 78,  3,  7,  6,  8, 41, 12,  4,  6, 75,  8,  5,
       18, 59,  2, 79, 82, 53,  7, 65, 60,  9, 42,  9, 85, 82, 66,  3, 77,
       84, 62, 23, 39,  9, 82,  4, 49,  5,  6, 14,  4, 84, 23, 80, 15,  4,
        4,  6, 58, 13, 31, 66, 68,  9,  7, 59,  5, 78,  9,  7, 50,  7,  4])}, {'ts_index': 16, 'loc': 75, 'gap': 0.012116213667900465, 'distances': array([0.05481012, 0.02219427, 0.02229077, 0.00542025, 0.04921389,
       0.07060173, 0.02552388, 0.03610498, 0.        , 0.04556096,
       0.05487539, 0.02419649, 0.04153503, 0.04469457, 0.06343592,
       0.01675582, 0.02480755, 0.05711806, 0.05693163, 0.03696496,
       0.06868861, 0.01947872, 0.0367634 , 0.04459117, 0.04155846,
       0.03890306, 0.06542267, 0.04234476, 0.0367083 , 0.01382644,
       0.02679428, 0.03047106, 0.08223928, 0.02578649, 0.0497732 ,
       0.00502821, 0.0511526 , 0.06823957, 0.05195146, 0.02299718,
       0.02315796, 0.05451829, 0.01986132, 0.01733946, 0.02913438,
       0.06947046, 0.03572006, 0.02279025, 0.02631673, 0.0503615 ,
       0.07195742, 0.04646167, 0.03555646, 0.02283883, 0.06718564,
       0.07807045, 0.04980117, 0.07866863, 0.05590954, 0.07675791,
       0.09027173, 0.04627585, 0.04759015, 0.04165952, 0.04993271,
       0.03495715, 0.05933512, 0.04837016, 0.03967622, 0.06520379,
       0.06926756, 0.04313662, 0.05965616, 0.03919297, 0.06338715,
       0.02087468, 0.05418203, 0.0419485 , 0.06147135, 0.05268077,
       0.0436217 , 0.05024144, 0.03747997, 0.01819098, 0.02696949,
       0.04791067, 0.03524902, 0.01842385, 0.07819155, 0.04404827,
       0.03156962, 0.05310347, 0.05315451, 0.04706297, 0.08146428,
       0.02324608, 0.04416676, 0.05581766, 0.0621198 , 0.04922335,
       0.04045917, 0.02683065, 0.05993663, 0.06393746, 0.06614612,
       0.03826162, 0.03905933, 0.04356066, 0.09439162, 0.06552167,
       0.07083108, 0.02548211]), 'delta_distances': array([0., 0., 0., 0., 0., 0., 0., 0., 0., 0., 0., 0., 0., 0., 0., 0., 0.,
       0., 0., 0., 0., 0., 0., 0., 0., 0., 0., 0., 0., 0., 0., 0., 0., 0.,
       0., 0., 0., 0., 0., 0., 0., 0., 0., 0., 0., 0., 0., 0., 0., 0., 0.,
       0., 0., 0., 0., 0., 0., 0., 0., 0., 0., 0., 0., 0., 0., 0., 0., 0.,
       0., 0., 0., 0., 0., 0., 0., 0., 0., 0., 0., 0., 0., 0., 0., 0., 0.,
       0., 0., 0., 0., 0., 0., 0., 0., 0., 0., 0., 0., 0., 0., 0., 0., 0.,
       0., 0., 0., 0., 0., 0., 0., 0., 0., 0.]), 'locations': array([63, 77, 77, 31, 57, 72, 27,  6, 75, 84, 55, 82, 27, 79, 18, 34, 55,
       37, 17, 86, 26, 69, 84, 58,  6, 63, 74, 75, 50, 80, 64, 54, 22,  7,
       39, 31, 48, 37, 50, 33, 61, 74, 77, 78, 77, 28, 66,  4, 34, 47, 82,
       82, 75, 38, 31,  3, 86,  4, 81, 58,  9, 51, 46,  8, 79, 74, 50, 65,
       65, 64, 32, 63, 59,  8, 41, 62, 62, 60, 32, 84, 85, 53, 66, 80, 74,
       79, 62, 61, 59, 77, 78, 49, 50, 84,  3, 62, 27, 60, 30, 58, 41, 73,
       68, 40, 82, 40,  5, 74, 64, 50, 16,  6])}], 'clusters': array([4, 4, 2, 4, 3, 3, 1, 4, 4, 0, 1, 4, 1, 1, 4, 1, 4, 1, 4, 4, 4, 4,
       4, 4, 4, 4, 4, 4, 4, 1, 1, 1, 0, 1, 4, 4, 2, 2, 4, 4, 4, 0, 4, 2,
       4, 4, 4, 3, 3, 4, 3, 1, 0, 4, 1, 3, 2, 4, 2, 3, 4, 1, 4, 2, 2, 0,
       4, 3, 4, 3, 4, 4, 2, 3, 4, 4, 2, 1, 4, 0, 4, 4, 4, 4, 1, 3, 2, 0,
       4, 4, 1, 4, 0, 3, 0, 1, 4, 0, 4, 2, 0, 1, 0, 2, 4, 4, 2, 4, 1, 1,
       4, 3, 4, 1, 4, 4, 4, 4, 2, 0, 1, 2, 4, 2, 1, 3, 2, 4, 4, 4, 3, 1,
       3, 1, 4, 4, 1, 4, 2, 1, 4, 3, 1, 4, 4, 4, 1, 2, 4, 4, 4, 4, 2, 2,
       4, 3, 4, 0, 4, 4, 4, 1, 1, 3, 3, 3, 4, 1, 2, 4, 0, 4, 2, 2, 3, 4,
       4, 4, 4, 1, 3, 4, 4, 4, 4, 0, 4, 1, 4, 4, 0, 2, 3, 2, 1, 2, 2, 0,
       0, 4]), 'time': 785.0811550617218}
lenSubsequence: 10{'RI': 0.49628140703517587, 'num_clusters': 4, 'uShapelets': [{'ts_index': 126, 'loc': 21, 'gap': 0.08964143200634257, 'distances': array([0.1261242 , 0.19035573, 0.06647562, 0.02821566, 0.0301688 ,
       0.05870727, 0.03948318, 0.06563229, 0.05124659, 0.16202961,
       0.07466749, 0.14545302, 0.20002987, 0.04130474, 0.20007663,
       0.02601111, 0.20015691, 0.01335912, 0.10503288, 0.0911238 ,
       0.01963906, 0.20011105, 0.20070382, 0.20002609, 0.16740008,
       0.20044738, 0.16215712, 0.18447327, 0.02404316, 0.14100045,
       0.17213335, 0.03457271, 0.15806594, 0.20043406, 0.04059983,
       0.02172551, 0.20012276, 0.05456151, 0.20021712, 0.20002347,
       0.20010019, 0.20049041, 0.0400339 , 0.02979917, 0.20092743,
       0.03286971, 0.20003922, 0.02895123, 0.02430629, 0.07001919,
       0.20005013, 0.14283944, 0.05083214, 0.09093252, 0.08316171,
       0.02898803, 0.10244123, 0.17936984, 0.02915132, 0.06340985,
       0.20107596, 0.04302234, 0.20039887, 0.13305619, 0.01883416,
       0.02130401, 0.14090398, 0.20005799, 0.20048159, 0.20002989,
       0.20012275, 0.19412428, 0.09907583, 0.02493884, 0.03728529,
       0.15058172, 0.02467715, 0.04047582, 0.20063784, 0.20033238,
       0.02407409, 0.20001365, 0.20012122, 0.1467964 , 0.05280257,
       0.20090822, 0.112813  , 0.20006007, 0.02535636, 0.20033977,
       0.01231509, 0.16686661, 0.20036016, 0.20033851, 0.16936688,
       0.20061461, 0.03285596, 0.17604769, 0.20057456, 0.20005709,
       0.12628829, 0.20025646, 0.02265911, 0.03948566, 0.08503423,
       0.20030633, 0.13721179, 0.20006073, 0.20068135, 0.20010798,
       0.09164862, 0.20048371, 0.20065222, 0.20006229, 0.20012368,
       0.20004786, 0.19888182, 0.17479427, 0.07701335, 0.20000611,
       0.06269289, 0.04306191, 0.11261495, 0.02611132, 0.01931607,
       0.20003667, 0.        , 0.20017094, 0.20063388, 0.20017555,
       0.06115311, 0.16395864, 0.01990637, 0.09070299, 0.17464692,
       0.03193712, 0.06827452, 0.02337767, 0.03768821, 0.09286198,
       0.03713557, 0.1437539 , 0.20000272, 0.03536002, 0.20056229,
       0.20013232, 0.2001956 , 0.20003832, 0.03739791, 0.18091796,
       0.02531381, 0.06062212, 0.02202478, 0.07812639, 0.20001401,
       0.05925077, 0.20004014, 0.17190209, 0.20017748, 0.09561634,
       0.03604124, 0.17396524, 0.2002173 , 0.15853199, 0.20004585,
       0.17892645, 0.04064783, 0.04131515, 0.00874441, 0.19674456,
       0.20014873, 0.11962443, 0.0165098 , 0.02945268, 0.03977163,
       0.20053326, 0.14348197, 0.06484318, 0.04885344, 0.00895088,
       0.01145349, 0.07666746, 0.20044182, 0.08754665, 0.07683517,
       0.20015917, 0.05405745, 0.20033989, 0.04188723, 0.14904442,
       0.05088597, 0.20034115, 0.20001902, 0.06235626, 0.06289451,
       0.20000518, 0.14567414, 0.04612832, 0.03239361, 0.20051328]), 'delta_distances': array([0., 0., 0., 0., 0., 0., 0., 0., 0., 0., 0., 0., 0., 0., 0., 0., 0.,
       0., 0., 0., 0., 0., 0., 0., 0., 0., 0., 0., 0., 0., 0., 0., 0., 0.,
       0., 0., 0., 0., 0., 0., 0., 0., 0., 0., 0., 0., 0., 0., 0., 0., 0.,
       0., 0., 0., 0., 0., 0., 0., 0., 0., 0., 0., 0., 0., 0., 0., 0., 0.,
       0., 0., 0., 0., 0., 0., 0., 0., 0., 0., 0., 0., 0., 0., 0., 0., 0.,
       0., 0., 0., 0., 0., 0., 0., 0., 0., 0., 0., 0., 0., 0., 0., 0., 0.,
       0., 0., 0., 0., 0., 0., 0., 0., 0., 0., 0., 0., 0., 0., 0., 0., 0.,
       0., 0., 0., 0., 0., 0., 0., 0., 0., 0., 0., 0., 0., 0., 0., 0., 0.,
       0., 0., 0., 0., 0., 0., 0., 0., 0., 0., 0., 0., 0., 0., 0., 0., 0.,
       0., 0., 0., 0., 0., 0., 0., 0., 0., 0., 0., 0., 0., 0., 0., 0., 0.,
       0., 0., 0., 0., 0., 0., 0., 0., 0., 0., 0., 0., 0., 0., 0., 0., 0.,
       0., 0., 0., 0., 0., 0., 0., 0., 0., 0., 0., 0., 0.]), 'locations': array([48, 23, 39, 22, 59, 21, 31, 21, 16, 10, 10, 19, 66, 31, 56, 32,  7,
       22, 18, 11,  9, 13, 42,  8, 81, 24, 26,  5, 18, 20,  5, 25, 26,  7,
       62, 16, 15, 30, 18, 37, 17, 37, 20, 25, 70, 27, 44, 36, 22, 17, 49,
       48, 35, 36, 14, 24, 20, 35, 61, 30, 45, 26, 50, 62, 43, 34, 52, 29,
       27, 15, 25, 53, 46, 27, 30, 27, 24, 25, 20, 32, 52, 17, 63, 41, 49,
        0, 19, 55, 29, 32, 19, 20, 76, 10, 44, 27, 13, 34,  9, 31, 65, 24,
       61, 23, 79, 10, 66, 13, 50, 20, 11, 13, 26, 26, 23, 15,  5, 16, 13,
       34, 55, 13,  9, 18, 26, 65, 21, 29, 26, 58, 43, 18, 25, 55, 25, 21,
       10, 28, 63,  7, 34, 42, 48, 33, 67, 30, 13, 27, 29, 15, 25, 28, 26,
       20, 18, 29, 55, 44, 30, 15, 30, 16, 46, 20, 25, 42, 28, 24, 24, 23,
       25, 80, 32, 50, 20, 41, 82, 42, 26, 70, 18, 14, 10, 23, 38, 77, 20,
       25, 17, 85, 36, 15, 21, 23, 77, 54, 44, 29, 30, 70])}, {'ts_index': 94, 'loc': 42, 'gap': 0.08610435359120067, 'distances': array([0.06376695, 0.04279605, 0.20098704, 0.04434968, 0.071142  ,
       0.02687565, 0.08843572, 0.02252362, 0.06156146, 0.03537477,
       0.06847137, 0.04286784, 0.20019177, 0.11597236, 0.06522072,
       0.15379105, 0.09954488, 0.03901779, 0.05171363, 0.03354521,
       0.04389343, 0.02304358, 0.20023334, 0.05757113, 0.05422091,
       0.03547344, 0.08841459, 0.20066177, 0.04541432, 0.16687839,
       0.20000154, 0.09838161, 0.05392693, 0.03173152, 0.20040863,
       0.0361818 , 0.15834247, 0.04609269, 0.08706938, 0.09593957,
       0.17572099, 0.04223933, 0.04114966, 0.06679797, 0.12348326,
       0.05449998, 0.0643423 , 0.14966957, 0.04671852, 0.        ,
       0.06323442, 0.20017   , 0.04655046, 0.07722026, 0.16077772,
       0.03711897, 0.06170987, 0.08239257, 0.01919288, 0.04143779,
       0.07041083, 0.2002259 , 0.17861336, 0.05124691, 0.20026124,
       0.0338905 , 0.04441604, 0.09966491, 0.17731568, 0.02935718,
       0.17690864, 0.06575105, 0.0861335 , 0.04105224, 0.04858713,
       0.20003278, 0.04214978, 0.05602037, 0.05066178, 0.03053425,
       0.05292125, 0.04172474, 0.01372519, 0.09479688, 0.05296156,
       0.07585781, 0.05153404, 0.20063516, 0.19029318, 0.04837632,
       0.06985709, 0.05811608, 0.17192837, 0.04503535, 0.04775285,
       0.09989232, 0.0708815 , 0.13788339, 0.0467845 , 0.05639248,
       0.04967664, 0.06299968, 0.20123895, 0.05219865, 0.07015335]), 'delta_distances': array([0., 0., 0., 0., 0., 0., 0., 0., 0., 0., 0., 0., 0., 0., 0., 0., 0.,
       0., 0., 0., 0., 0., 0., 0., 0., 0., 0., 0., 0., 0., 0., 0., 0., 0.,
       0., 0., 0., 0., 0., 0., 0., 0., 0., 0., 0., 0., 0., 0., 0., 0., 0.,
       0., 0., 0., 0., 0., 0., 0., 0., 0., 0., 0., 0., 0., 0., 0., 0., 0.,
       0., 0., 0., 0., 0., 0., 0., 0., 0., 0., 0., 0., 0., 0., 0., 0., 0.,
       0., 0., 0., 0., 0., 0., 0., 0., 0., 0., 0., 0., 0., 0., 0., 0., 0.,
       0., 0., 0.]), 'locations': array([ 5, 38, 41, 25, 26, 25, 44, 57, 68, 65, 80, 68,  2,  6, 68, 75, 19,
       52, 28, 55, 26, 33, 55, 46, 77, 59, 59, 67, 58, 67, 64, 67, 14, 59,
       31, 28, 83, 56, 65, 68, 57, 18, 27, 55, 10, 16, 57, 59, 26, 42, 39,
        4, 31, 28, 80, 28, 78, 68, 75, 54, 64, 18, 34, 84, 50, 83, 49,  5,
       50, 72, 61, 85, 83, 58, 56, 43, 41, 48, 50,  3,  6, 47, 66, 65, 43,
       81, 31, 82, 43, 82, 41, 62, 59, 23, 72, 60, 41, 82, 58, 53, 84, 85,
       66, 58, 28])}, {'ts_index': 141, 'loc': 32, 'gap': 0.07907402360387669, 'distances': array([0.09561564, 0.09770076, 0.08197777, 0.03201347, 0.13533509,
       0.05656089, 0.20004294, 0.02994703, 0.1391275 , 0.04562552,
       0.08813184, 0.20024472, 0.19315836, 0.20074465, 0.        ,
       0.05370073, 0.12716788, 0.10788469, 0.04482198]), 'delta_distances': array([0., 0., 0., 0., 0., 0., 0., 0., 0., 0., 0., 0., 0., 0., 0., 0., 0.,
       0., 0.]), 'locations': array([39, 37, 19, 83, 25, 21, 16, 66, 42, 26, 15, 42, 36, 59, 32, 38, 51,
       17, 80])}], 'clusters': array([2, 2, 1, 1, 1, 1, 1, 1, 1, 3, 1, 2, 2, 1, 2, 1, 2, 1, 1, 1, 1, 2,
       2, 2, 2, 2, 3, 2, 1, 2, 2, 1, 2, 2, 1, 1, 2, 1, 2, 2, 2, 3, 1, 1,
       2, 1, 2, 1, 1, 1, 2, 2, 1, 1, 1, 1, 1, 3, 1, 1, 2, 1, 3, 3, 1, 1,
       2, 2, 2, 0, 2, 2, 1, 1, 1, 2, 1, 1, 2, 2, 1, 3, 2, 2, 1, 2, 1, 2,
       1, 2, 1, 2, 2, 2, 2, 2, 1, 3, 2, 2, 2, 2, 1, 1, 1, 2, 2, 2, 2, 2,
       1, 3, 3, 2, 0, 2, 2, 2, 1, 0, 1, 1, 1, 1, 1, 2, 1, 0, 2, 2, 1, 2,
       1, 1, 2, 1, 1, 1, 1, 1, 1, 3, 2, 1, 2, 2, 2, 2, 1, 2, 1, 1, 1, 1,
       2, 1, 2, 2, 2, 1, 1, 2, 3, 3, 2, 2, 1, 1, 1, 2, 3, 2, 1, 1, 1, 2,
       2, 1, 1, 1, 1, 1, 2, 1, 1, 2, 1, 2, 1, 2, 1, 2, 2, 1, 1, 3, 2, 1,
       1, 2]), 'time': 407.3127384185791}
