lenSubsequence: 7{'RI': 0.47743718592964823, 'num_clusters': 9, 'uShapelets': [{'ts_index': 105, 'loc': 79, 'gap': 0.018846949885198805, 'distances': array([0.22886589, 0.23939073, 0.24826812, 0.27096852, 0.25328964,
       0.25484989, 0.12780772, 0.18360865, 0.25110373, 0.27109029,
       0.26063879, 0.18563483, 0.22770883, 0.23114601, 0.23230778,
       0.20100359, 0.19194922, 0.25416968, 0.22924926, 0.22318967,
       0.13382281, 0.23473671, 0.2233994 , 0.17512379, 0.22746421,
       0.1561062 , 0.19886842, 0.26004436, 0.15907349, 0.27277935,
       0.22734084, 0.23276067, 0.27846818, 0.26132841, 0.25244495,
       0.25723227, 0.21377581, 0.16464679, 0.20424981, 0.21350701,
       0.23910825, 0.13853155, 0.24705596, 0.24619966, 0.11433273,
       0.16322403, 0.18214965, 0.22942931, 0.16387324, 0.22043572,
       0.27556722, 0.26720238, 0.19535748, 0.23098965, 0.23986808,
       0.25283737, 0.22368025, 0.2437061 , 0.24657734, 0.15551841,
       0.20191329, 0.20463677, 0.1915432 , 0.15366243, 0.20857998,
       0.22669721, 0.24608804, 0.17135968, 0.25822763, 0.19784986,
       0.24820905, 0.22137814, 0.18805122, 0.19588389, 0.23972849,
       0.1567298 , 0.15250009, 0.17577488, 0.18202786, 0.17665847,
       0.24743603, 0.18189643, 0.22454752, 0.25669283, 0.24994241,
       0.23426233, 0.26838946, 0.17923263, 0.25692507, 0.2270339 ,
       0.18139757, 0.21633179, 0.20131458, 0.20815336, 0.26335961,
       0.24481288, 0.24264722, 0.25784762, 0.23003897, 0.20619124,
       0.24634201, 0.18352281, 0.22942848, 0.19966152, 0.21351315,
       0.        , 0.24081916, 0.22547263, 0.25365738, 0.22638895,
       0.18806076, 0.24158102, 0.15592352, 0.12315972, 0.18879427,
       0.26289317, 0.23926372, 0.25370245, 0.26810183, 0.21523373,
       0.25509028, 0.25742293, 0.25254903, 0.18510419, 0.20698598,
       0.25757851, 0.25533326, 0.20994338, 0.21734306, 0.22634448,
       0.18230163, 0.18382198, 0.2227243 , 0.22226324, 0.2698719 ,
       0.23093854, 0.2282054 , 0.1503464 , 0.20449916, 0.25774042,
       0.26043331, 0.24056734, 0.15717216, 0.25694061, 0.21683176,
       0.26663032, 0.26889542, 0.15012649, 0.22937113, 0.24146177,
       0.28328049, 0.21251759, 0.23882739, 0.22719932, 0.18272974,
       0.19467084, 0.23425832, 0.19560436, 0.16749382, 0.2265352 ,
       0.21193448, 0.24236693, 0.23186734, 0.22019125, 0.19544594,
       0.17817471, 0.199929  , 0.20919134, 0.2529584 , 0.25637909,
       0.23164554, 0.17129327, 0.23557662, 0.22431515, 0.23288131,
       0.24098682, 0.28107284, 0.22350519, 0.25548706, 0.16621802,
       0.20888976, 0.22350017, 0.21095772, 0.27760235, 0.25133344,
       0.22673863, 0.22786282, 0.27241036, 0.24542584, 0.20094261,
       0.23365649, 0.19022708, 0.24301505, 0.2047016 , 0.27125803,
       0.25368601, 0.19631857, 0.24457667, 0.21819036, 0.25863321]), 'delta_distances': array([0., 0., 0., 0., 0., 0., 0., 0., 0., 0., 0., 0., 0., 0., 0., 0., 0.,
       0., 0., 0., 0., 0., 0., 0., 0., 0., 0., 0., 0., 0., 0., 0., 0., 0.,
       0., 0., 0., 0., 0., 0., 0., 0., 0., 0., 0., 0., 0., 0., 0., 0., 0.,
       0., 0., 0., 0., 0., 0., 0., 0., 0., 0., 0., 0., 0., 0., 0., 0., 0.,
       0., 0., 0., 0., 0., 0., 0., 0., 0., 0., 0., 0., 0., 0., 0., 0., 0.,
       0., 0., 0., 0., 0., 0., 0., 0., 0., 0., 0., 0., 0., 0., 0., 0., 0.,
       0., 0., 0., 0., 0., 0., 0., 0., 0., 0., 0., 0., 0., 0., 0., 0., 0.,
       0., 0., 0., 0., 0., 0., 0., 0., 0., 0., 0., 0., 0., 0., 0., 0., 0.,
       0., 0., 0., 0., 0., 0., 0., 0., 0., 0., 0., 0., 0., 0., 0., 0., 0.,
       0., 0., 0., 0., 0., 0., 0., 0., 0., 0., 0., 0., 0., 0., 0., 0., 0.,
       0., 0., 0., 0., 0., 0., 0., 0., 0., 0., 0., 0., 0., 0., 0., 0., 0.,
       0., 0., 0., 0., 0., 0., 0., 0., 0., 0., 0., 0., 0.]), 'locations': array([33, 79, 79, 63, 71, 43,  6, 57, 40, 44, 45,  1,  6, 14, 38, 74, 60,
       39,  7, 11, 13, 66, 57, 30, 38, 13, 85, 58,  1, 15, 79, 68, 10, 52,
       26, 84, 22, 15, 22, 34, 67, 55, 19,  6, 56, 76, 55, 37, 51, 47, 59,
       53, 60, 14, 13, 66, 53, 34, 67, 33, 51, 18, 41, 66,  3,  8, 27, 30,
       77, 63, 31, 23, 12, 23, 33,  2, 47, 77,  8, 22, 58, 57, 10, 68, 37,
       19, 50, 32, 32, 60, 22, 75, 88, 87, 55, 47,  8, 35, 41, 34, 46, 25,
       53, 55, 29, 79, 74,  4, 45, 13, 28,  5, 68, 57,  8, 46, 65, 83, 72,
       74, 44, 75, 52, 19,  8,  0, 56, 56, 88, 40, 68, 63, 28, 25, 26, 26,
       57, 59, 84, 72, 75, 68, 27, 21, 69, 47, 38, 36,  8, 50, 51, 29, 55,
       38, 62, 44,  1, 64, 62, 24, 19, 18, 27, 63, 27, 28, 20, 68, 29,  7,
       23, 26, 20, 16, 40, 38, 72, 31, 32, 81,  4, 25, 35, 61, 58, 58, 13,
       43, 26, 45, 51, 57, 56, 64, 48, 82, 24, 56, 57, 75])}, {'ts_index': 19, 'loc': 41, 'gap': 0.029240178190265087, 'distances': array([0.30565964, 0.28606894, 0.28339635, 0.28506708, 0.3106197 ,
       0.26719529, 0.26112893, 0.35099196, 0.31282955, 0.34085673,
       0.29138791, 0.3062002 , 0.26466192, 0.36309793, 0.28415785,
       0.27674616, 0.        , 0.31489164, 0.28162568, 0.33531871,
       0.34723011, 0.15353968, 0.20964784, 0.28780408, 0.21076176,
       0.21587816, 0.30895715, 0.16720685, 0.30035992, 0.28174746,
       0.32993092, 0.29289652, 0.30944388, 0.28942502, 0.30210581,
       0.30555413, 0.20638176, 0.32825508, 0.29922035, 0.35857924,
       0.31199504, 0.31264209, 0.21128566, 0.30810291, 0.26195353,
       0.28063847, 0.27481043, 0.28828967, 0.29790298, 0.26468428,
       0.27249759, 0.28782786, 0.30408525, 0.19026285, 0.27113034,
       0.24029918, 0.22152033, 0.30596729, 0.29294792, 0.31322114,
       0.27499814, 0.20952869, 0.27879496, 0.27799839, 0.30248514,
       0.31078509, 0.31865917, 0.26994237, 0.3166526 , 0.2366099 ,
       0.301258  , 0.3197442 , 0.29211988, 0.20401054, 0.27180004,
       0.31312677, 0.2558337 , 0.3173728 , 0.32333807, 0.17089845,
       0.30355626, 0.25597423, 0.30843834, 0.29465808, 0.32706552,
       0.29408831, 0.2689856 , 0.26428436, 0.28585554, 0.28936507,
       0.22774961, 0.34542464, 0.30655324, 0.28668826, 0.2264189 ,
       0.30239081, 0.35862424, 0.266566  , 0.34177698, 0.29543154,
       0.21816262, 0.31223955, 0.20531611, 0.29764616, 0.29473205,
       0.26029055, 0.28483078, 0.23624765, 0.25792809, 0.20759997,
       0.30496254, 0.32083534, 0.28484196, 0.34796485, 0.30093475,
       0.27960642, 0.2502834 , 0.29184139, 0.28102729, 0.28194697,
       0.29048016, 0.291164  , 0.30566168, 0.32549209, 0.30614246,
       0.210327  , 0.2496596 , 0.30981811, 0.27803224, 0.28260201,
       0.2923639 , 0.27385146, 0.27281588, 0.27965395, 0.33315353,
       0.30553211, 0.29652663, 0.26980797, 0.18651451, 0.32132806,
       0.2850393 , 0.30741286, 0.32576051, 0.31936885, 0.28507434,
       0.30174755, 0.30024824, 0.21215316, 0.23382141, 0.1212873 ,
       0.28037931, 0.23221099, 0.32324507, 0.31622128, 0.24289132,
       0.34914258, 0.30654274, 0.35754715, 0.16608293, 0.35206863,
       0.31788145]), 'delta_distances': array([0., 0., 0., 0., 0., 0., 0., 0., 0., 0., 0., 0., 0., 0., 0., 0., 0.,
       0., 0., 0., 0., 0., 0., 0., 0., 0., 0., 0., 0., 0., 0., 0., 0., 0.,
       0., 0., 0., 0., 0., 0., 0., 0., 0., 0., 0., 0., 0., 0., 0., 0., 0.,
       0., 0., 0., 0., 0., 0., 0., 0., 0., 0., 0., 0., 0., 0., 0., 0., 0.,
       0., 0., 0., 0., 0., 0., 0., 0., 0., 0., 0., 0., 0., 0., 0., 0., 0.,
       0., 0., 0., 0., 0., 0., 0., 0., 0., 0., 0., 0., 0., 0., 0., 0., 0.,
       0., 0., 0., 0., 0., 0., 0., 0., 0., 0., 0., 0., 0., 0., 0., 0., 0.,
       0., 0., 0., 0., 0., 0., 0., 0., 0., 0., 0., 0., 0., 0., 0., 0., 0.,
       0., 0., 0., 0., 0., 0., 0., 0., 0., 0., 0., 0., 0., 0., 0., 0., 0.,
       0., 0., 0., 0., 0., 0., 0., 0.]), 'locations': array([84, 24, 13, 43, 50,  3, 26, 58, 38, 65, 39, 15, 84, 75, 84, 59, 41,
       28, 50, 42, 77, 30, 55, 76, 67, 47, 30, 27, 64, 59, 51, 20, 31, 28,
       58, 57, 66, 83, 59, 81, 85, 68, 45, 67, 38, 26, 27, 75, 34,  6, 52,
       42, 19, 27, 61, 45, 65, 46, 65, 33, 22, 77, 68, 65,  4, 51,  2, 50,
       74,  6,  6, 40, 48,  5, 44, 14, 38, 51, 15, 15, 46, 66, 32,  7, 79,
       38,  5, 51,  7, 65, 29, 77, 12, 46, 85, 79, 23, 65, 48, 45, 73,  2,
       52, 36, 80, 51, 31, 36, 63, 17,  6,  6, 28, 70,  3, 59, 74, 56, 13,
       48, 40, 38, 43, 75, 52, 24, 13, 35, 50, 15, 48, 19, 39,  4, 34, 36,
       34, 18, 32, 75, 42, 58, 53, 40, 10, 70, 60, 43, 69, 77, 63, 10, 83,
       75, 38, 32, 73,  5, 68, 74, 40])}, {'ts_index': 85, 'loc': 89, 'gap': 0.01796426327967321, 'distances': array([0.24985164, 0.25212392, 0.22116353, 0.24397345, 0.20458962,
       0.21440447, 0.23103231, 0.26554608, 0.23681447, 0.22124875,
       0.24446014, 0.22488117, 0.20509215, 0.21154829, 0.20577672,
       0.21972072, 0.239783  , 0.19759452, 0.18709272, 0.21833506,
       0.20888262, 0.26700993, 0.22084716, 0.22041685, 0.21034216,
       0.22374856, 0.24562038, 0.23636086, 0.20757193, 0.25277452,
       0.22149571, 0.2406588 , 0.23031163, 0.22185247, 0.24146915,
       0.20123675, 0.23138888, 0.17228365, 0.16075671, 0.21898042,
       0.22267779, 0.22520426, 0.16171922, 0.21706339, 0.22168257,
       0.20852262, 0.25320964, 0.18180144, 0.19389256, 0.2208261 ,
       0.22185148, 0.20563056, 0.196578  , 0.2714542 , 0.15833313,
       0.24778445, 0.21565496, 0.13958933, 0.25192898, 0.20241842,
       0.18412972, 0.23644129, 0.22102365, 0.24156251, 0.22664615,
       0.22159833, 0.22567865, 0.2527555 , 0.23595036, 0.24946436,
       0.19941731, 0.16080366, 0.21989371, 0.26395404, 0.22371806,
       0.21583958, 0.23652475, 0.23855379, 0.22659023, 0.2447304 ,
       0.1912283 , 0.22589631, 0.18887157, 0.2432448 , 0.21320498,
       0.21333138, 0.22740957, 0.19319917, 0.24001863, 0.22400535,
       0.21205238, 0.23506059, 0.20673513, 0.2317529 , 0.23049139,
       0.1921469 , 0.25754701, 0.25134391, 0.18544315, 0.15487127,
       0.23402031, 0.1899764 , 0.21443113, 0.22688288, 0.23524553,
       0.21416091, 0.22437518, 0.23668806, 0.24972623, 0.20244348,
       0.24219114, 0.21940155, 0.18088186, 0.25521272, 0.1899572 ,
       0.21309609, 0.24172193, 0.21977763, 0.23901631, 0.24112656,
       0.2423749 , 0.18332719, 0.23083455, 0.21823488, 0.22628885,
       0.24372319, 0.23252061, 0.18429637, 0.1972318 , 0.2429627 ,
       0.23236242, 0.22937886, 0.26559331]), 'delta_distances': array([0., 0., 0., 0., 0., 0., 0., 0., 0., 0., 0., 0., 0., 0., 0., 0., 0.,
       0., 0., 0., 0., 0., 0., 0., 0., 0., 0., 0., 0., 0., 0., 0., 0., 0.,
       0., 0., 0., 0., 0., 0., 0., 0., 0., 0., 0., 0., 0., 0., 0., 0., 0.,
       0., 0., 0., 0., 0., 0., 0., 0., 0., 0., 0., 0., 0., 0., 0., 0., 0.,
       0., 0., 0., 0., 0., 0., 0., 0., 0., 0., 0., 0., 0., 0., 0., 0., 0.,
       0., 0., 0., 0., 0., 0., 0., 0., 0., 0., 0., 0., 0., 0., 0., 0., 0.,
       0., 0., 0., 0., 0., 0., 0., 0., 0., 0., 0., 0., 0., 0., 0., 0., 0.,
       0., 0., 0., 0., 0., 0., 0., 0., 0., 0., 0., 0., 0., 0.]), 'locations': array([ 4, 59,  2, 45, 21,  6, 82, 56, 63, 48, 69, 62, 54, 71, 28, 19, 34,
       27, 64, 75, 14, 87, 24, 62,  8,  8, 28, 42, 11, 56, 68, 64, 63, 56,
       27, 27,  3, 77, 13,  1, 20,  2, 51, 71, 22, 22, 18, 13, 42,  6, 43,
       24, 20,  2, 73, 80,  3, 87, 45, 14, 27, 13,  2, 83, 80, 60, 68, 72,
       52, 33, 39, 54, 35, 79, 80, 76, 59, 56, 74, 76, 28, 26, 26, 15, 31,
       82, 35, 25, 54, 18, 12, 72, 23, 13, 58, 44,  1, 54, 56,  2, 18, 48,
       41, 80, 86, 73, 61, 70, 53, 63, 18, 24, 57, 53, 45, 80, 52, 30, 63,
       66,  8, 13, 75, 77, 29, 14, 25, 58, 31, 42, 18, 32, 11])}, {'ts_index': 117, 'loc': 63, 'gap': 0.01997177500259839, 'distances': array([0.18245344, 0.16208619, 0.2106728 , 0.21133927, 0.26093269,
       0.18303407, 0.24070194, 0.1725274 , 0.23718107, 0.23156252,
       0.27142826, 0.23000101, 0.19193332, 0.17267988, 0.2057055 ,
       0.18757473, 0.15257377, 0.20439129, 0.16720695, 0.23071885,
       0.16078955, 0.26300553, 0.22932426, 0.18794949, 0.1452095 ,
       0.1629645 , 0.1823178 , 0.16852303, 0.20157523, 0.24817475,
       0.21445694, 0.20961482, 0.16297516, 0.26572229, 0.2583643 ,
       0.1673498 , 0.17372234, 0.19037447, 0.22147408, 0.24570727,
       0.16377121, 0.25725649, 0.19975882, 0.20287466, 0.20127588,
       0.19987109, 0.24750422, 0.19924204, 0.17952872, 0.25894556,
       0.17930981, 0.23112634, 0.17380355, 0.17386111, 0.19407598,
       0.20371964, 0.1876828 , 0.20170071, 0.21431325, 0.17775206,
       0.24441694, 0.20603525, 0.        , 0.23611571, 0.22720891,
       0.16074379, 0.22108796, 0.21393354, 0.19624437, 0.21440695,
       0.19424042, 0.16853182, 0.15860815, 0.20321551, 0.20150062,
       0.18923651, 0.23863499, 0.21137538, 0.20235233, 0.19763934,
       0.26221689, 0.26853554, 0.20852145, 0.19258499, 0.18490067,
       0.19083013, 0.1879881 , 0.20043608, 0.23020159, 0.18992602,
       0.19461207, 0.17652924, 0.20273153, 0.20502176, 0.20421615,
       0.23531479, 0.23042997, 0.21381126, 0.28589192, 0.19458588,
       0.2198774 , 0.13340644, 0.25639663, 0.19886344, 0.17494165,
       0.1784433 , 0.23882562, 0.21853048, 0.20192694]), 'delta_distances': array([0., 0., 0., 0., 0., 0., 0., 0., 0., 0., 0., 0., 0., 0., 0., 0., 0.,
       0., 0., 0., 0., 0., 0., 0., 0., 0., 0., 0., 0., 0., 0., 0., 0., 0.,
       0., 0., 0., 0., 0., 0., 0., 0., 0., 0., 0., 0., 0., 0., 0., 0., 0.,
       0., 0., 0., 0., 0., 0., 0., 0., 0., 0., 0., 0., 0., 0., 0., 0., 0.,
       0., 0., 0., 0., 0., 0., 0., 0., 0., 0., 0., 0., 0., 0., 0., 0., 0.,
       0., 0., 0., 0., 0., 0., 0., 0., 0., 0., 0., 0., 0., 0., 0., 0., 0.,
       0., 0., 0., 0., 0., 0., 0.]), 'locations': array([32, 49, 77, 33, 75, 74, 43, 66,  8, 31, 64, 60, 69, 88,  1, 58, 46,
       30, 64, 36, 39, 54,  9, 64, 75, 24, 75, 72, 27, 13, 85, 61, 22, 88,
       83,  8, 25,  7, 29, 72, 60, 45, 71, 14, 58,  1, 14, 62, 20, 34, 64,
       27, 57, 56, 43, 10, 24,  0, 15, 59, 55, 20, 63, 16, 82, 79,  9, 14,
       28, 44, 63,  6, 10,  5, 67, 52, 43, 38, 80, 25, 20, 49, 59,  8,  8,
       64, 18, 45, 51,  5, 64, 72, 49, 23, 16, 34, 52, 21, 40,  0, 29, 83,
       47, 15, 27, 23, 33, 88,  8])}, {'ts_index': 189, 'loc': 77, 'gap': 0.021249931796701343, 'distances': array([0.11472507, 0.27749321, 0.26194905, 0.26922943, 0.22579101,
       0.20287882, 0.17172125, 0.26675536, 0.26240128, 0.17442887,
       0.2119737 , 0.24942934, 0.20709172, 0.2576846 , 0.23081748,
       0.27040283, 0.19202465, 0.        , 0.26688516]), 'delta_distances': array([0., 0., 0., 0., 0., 0., 0., 0., 0., 0., 0., 0., 0., 0., 0., 0., 0.,
       0., 0.]), 'locations': array([13, 61, 28, 31, 41, 82, 17, 77,  9,  5, 87, 26,  0, 49, 44, 62, 33,
       77, 22])}, {'ts_index': 152, 'loc': 33, 'gap': 0.03051984182504819, 'distances': array([0.28303405, 0.28306807, 0.18431078, 0.20959703, 0.28938232,
       0.20586206, 0.29690874, 0.26253218, 0.28471746, 0.28227885,
       0.2647698 , 0.26902431, 0.        , 0.26866611]), 'delta_distances': array([0., 0., 0., 0., 0., 0., 0., 0., 0., 0., 0., 0., 0., 0.]), 'locations': array([67, 22, 38, 84, 85, 59, 25, 20, 56, 73, 58, 16, 33, 73])}, {'ts_index': 91, 'loc': 50, 'gap': 0.08461112742076621, 'distances': array([0.12955301, 0.22910707, 0.29737074, 0.2814237 , 0.        ,
       0.17522974, 0.3058188 , 0.28214823, 0.29682293, 0.32602464]), 'delta_distances': array([0., 0., 0., 0., 0., 0., 0., 0., 0., 0.]), 'locations': array([59, 38, 59, 67, 50, 85, 17, 37, 39, 28])}, {'ts_index': 10, 'loc': 65, 'gap': 0.045404970973403236, 'distances': array([0.        , 0.24595618, 0.21471869, 0.30985549, 0.32425174,
       0.31194943, 0.34834722]), 'delta_distances': array([0., 0., 0., 0., 0., 0., 0.]), 'locations': array([65, 56,  6, 17, 48,  3, 78])}, {'ts_index': 145, 'loc': 53, 'gap': 0.02567908304665864, 'distances': array([0.23892504, 0.        , 0.19190116, 0.21758024]), 'delta_distances': array([0., 0., 0., 0.]), 'locations': array([22, 53, 24, 16])}], 'clusters': array([4, 4, 4, 4, 5, 4, 1, 1, 7, 4, 8, 1, 4, 6, 4, 4, 4, 4, 4, 2, 1, 4,
       3, 1, 3, 1, 4, 2, 1, 2, 4, 2, 2, 4, 2, 4, 6, 1, 4, 4, 4, 1, 4, 4,
       1, 1, 1, 4, 1, 2, 4, 8, 4, 4, 4, 2, 5, 6, 3, 1, 3, 4, 4, 1, 4, 3,
       4, 1, 8, 2, 4, 2, 2, 5, 3, 1, 1, 1, 1, 1, 3, 1, 4, 2, 4, 4, 3, 1,
       4, 3, 1, 7, 4, 2, 3, 4, 7, 2, 3, 4, 4, 1, 4, 4, 2, 1, 4, 4, 4, 4,
       4, 4, 1, 1, 3, 0, 4, 4, 2, 4, 4, 4, 2, 1, 4, 4, 3, 4, 3, 2, 1, 1,
       4, 2, 4, 4, 4, 1, 3, 2, 4, 2, 1, 4, 4, 9, 4, 1, 4, 4, 3, 9, 6, 3,
       1, 3, 4, 3, 1, 4, 4, 2, 4, 4, 4, 1, 4, 4, 4, 4, 4, 1, 3, 4, 3, 4,
       2, 4, 4, 1, 4, 5, 4, 3, 4, 4, 2, 2, 2, 5, 2, 4, 4, 3, 3, 4, 0, 2,
       4, 4]), 'time': 644.7265076637268}
lenSubsequence: 8{'RI': 0.4973366834170854, 'num_clusters': 4, 'uShapelets': [{'ts_index': 171, 'loc': 80, 'gap': 0.05334840247953068, 'distances': array([0.0340334 , 0.05474114, 0.09642392, 0.06177716, 0.1787303 ,
       0.0311294 , 0.17154696, 0.17415438, 0.11338146, 0.20039745,
       0.16382576, 0.18386609, 0.05974807, 0.0301819 , 0.10578334,
       0.21156324, 0.07994664, 0.18321858, 0.09376085, 0.16457548,
       0.09194409, 0.116921  , 0.18357229, 0.09625506, 0.08163877,
       0.03388996, 0.18628848, 0.09243555, 0.09476161, 0.13091224,
       0.18101875, 0.10013412, 0.05057207, 0.11718022, 0.04494372,
       0.04929106, 0.03859552, 0.08666601, 0.0076933 , 0.10162045,
       0.06609262, 0.13309974, 0.14273522, 0.08227455, 0.18495105,
       0.09193067, 0.0794807 , 0.03406684, 0.04688982, 0.08511829,
       0.08342072, 0.05647188, 0.04512663, 0.04894812, 0.12766017,
       0.04195368, 0.01451395, 0.11888394, 0.10426069, 0.12499505,
       0.03741767, 0.02643495, 0.0261913 , 0.02629533, 0.12217841,
       0.09269784, 0.19541799, 0.06376168, 0.10445116, 0.07866437,
       0.15670723, 0.06988795, 0.05716843, 0.10176806, 0.16310341,
       0.06578012, 0.07511447, 0.11613026, 0.07940682, 0.1214222 ,
       0.06764865, 0.08223084, 0.14279904, 0.05795287, 0.05687596,
       0.04632247, 0.11223546, 0.08552831, 0.17404433, 0.06655035,
       0.02272883, 0.00816622, 0.10534791, 0.0956997 , 0.14921341,
       0.12009844, 0.18227129, 0.09432134, 0.08549625, 0.03579366,
       0.12643695, 0.03108439, 0.12685239, 0.07498024, 0.10401543,
       0.05858109, 0.07958328, 0.03930381, 0.17550447, 0.04842577,
       0.07335327, 0.18053018, 0.1291055 , 0.16991396, 0.05950162,
       0.10129255, 0.05246341, 0.20023245, 0.05562702, 0.09020573,
       0.19609627, 0.14991766, 0.08775705, 0.05107904, 0.11334083,
       0.05633063, 0.19179605, 0.08576733, 0.124076  , 0.09446233,
       0.12272024, 0.1646625 , 0.13623244, 0.06334723, 0.11121376,
       0.09804088, 0.03408219, 0.06301608, 0.13908984, 0.16884275,
       0.11676939, 0.08534521, 0.13509212, 0.07150263, 0.05163658,
       0.11447273, 0.20443024, 0.02622675, 0.17420731, 0.10352563,
       0.03284526, 0.09865634, 0.09230423, 0.14522519, 0.02735768,
       0.09567991, 0.08460229, 0.15032872, 0.10472527, 0.05334559,
       0.08871052, 0.05762339, 0.01285122, 0.06840903, 0.18221629,
       0.04554642, 0.05201986, 0.0018143 , 0.16903226, 0.05274033,
       0.20086366, 0.        , 0.14525304, 0.06853226, 0.17431111,
       0.20103034, 0.1015841 , 0.14062922, 0.03753466, 0.02744637,
       0.09403018, 0.02425076, 0.1942557 , 0.10230974, 0.08212315,
       0.09296241, 0.06732319, 0.08837954, 0.03155632, 0.08595967,
       0.00678782, 0.1642909 , 0.18227443, 0.17831215, 0.08507253,
       0.06223834, 0.2175214 , 0.1663153 , 0.11862797, 0.084642  ]), 'delta_distances': array([0., 0., 0., 0., 0., 0., 0., 0., 0., 0., 0., 0., 0., 0., 0., 0., 0.,
       0., 0., 0., 0., 0., 0., 0., 0., 0., 0., 0., 0., 0., 0., 0., 0., 0.,
       0., 0., 0., 0., 0., 0., 0., 0., 0., 0., 0., 0., 0., 0., 0., 0., 0.,
       0., 0., 0., 0., 0., 0., 0., 0., 0., 0., 0., 0., 0., 0., 0., 0., 0.,
       0., 0., 0., 0., 0., 0., 0., 0., 0., 0., 0., 0., 0., 0., 0., 0., 0.,
       0., 0., 0., 0., 0., 0., 0., 0., 0., 0., 0., 0., 0., 0., 0., 0., 0.,
       0., 0., 0., 0., 0., 0., 0., 0., 0., 0., 0., 0., 0., 0., 0., 0., 0.,
       0., 0., 0., 0., 0., 0., 0., 0., 0., 0., 0., 0., 0., 0., 0., 0., 0.,
       0., 0., 0., 0., 0., 0., 0., 0., 0., 0., 0., 0., 0., 0., 0., 0., 0.,
       0., 0., 0., 0., 0., 0., 0., 0., 0., 0., 0., 0., 0., 0., 0., 0., 0.,
       0., 0., 0., 0., 0., 0., 0., 0., 0., 0., 0., 0., 0., 0., 0., 0., 0.,
       0., 0., 0., 0., 0., 0., 0., 0., 0., 0., 0., 0., 0.]), 'locations': array([ 4, 52, 52, 76,  9, 53, 13, 74, 66, 66, 52, 50, 85, 55, 36, 20,  8,
       86, 79, 57, 51, 85, 84, 34, 55, 52, 17, 56, 10, 80,  7, 75,  9, 31,
       77, 84,  3, 36, 36, 12, 35,  7, 41, 87,  5, 63, 48, 41, 86, 27,  4,
       80, 53, 48,  0, 67, 77, 18,  0, 44, 82, 60, 38, 83, 32,  3, 67,  3,
       18,  4, 66,  3, 32, 56,  6, 50, 73, 11, 45, 34,  6, 83, 33, 11, 69,
       22, 52,  2, 41, 54, 61,  6, 16, 52,  7, 50, 18, 74, 22,  7, 46, 38,
       42, 67, 56,  8, 73, 80, 77, 85, 40, 60,  0, 76, 48, 75, 83, 67, 68,
       39, 79, 52, 24, 66, 45, 84, 78, 74, 34, 50, 74, 87, 51, 71, 53, 73,
       72,  4, 10,  5, 40, 73, 33,  9, 76, 69, 36, 53, 14, 45, 43, 59,  7,
       43, 80, 65,  5, 51, 33, 43, 82, 85, 32, 43, 34, 60,  7, 69, 47, 29,
        9, 80,  5, 64,  9, 49,  4, 67, 68,  7, 35, 82, 39, 82, 73, 46, 69,
       35, 32, 83, 15, 42, 38, 45, 47, 30, 33, 40,  2, 87])}, {'ts_index': 11, 'loc': 70, 'gap': 0.04598788124288919, 'distances': array([0.08258609, 0.08539197, 0.03824434, 0.0527428 , 0.13402228,
       0.        , 0.14343386, 0.22167735, 0.18168162, 0.1949105 ,
       0.19509252, 0.19720461, 0.23428922, 0.12573668, 0.03893813,
       0.05338815, 0.20244519, 0.06663226, 0.12011385, 0.14791688,
       0.05854198, 0.16258038, 0.18223829, 0.22006736, 0.08825472,
       0.08931049, 0.05772189, 0.18851454, 0.1525813 , 0.19474795,
       0.12856771, 0.03834642, 0.08211803, 0.11178309, 0.11867974,
       0.13963716, 0.11015267, 0.17381387]), 'delta_distances': array([0., 0., 0., 0., 0., 0., 0., 0., 0., 0., 0., 0., 0., 0., 0., 0., 0.,
       0., 0., 0., 0., 0., 0., 0., 0., 0., 0., 0., 0., 0., 0., 0., 0., 0.,
       0., 0., 0., 0.]), 'locations': array([37,  5,  6, 16, 40, 70, 43, 45, 48,  6,  0, 39, 84, 54, 29, 23, 77,
       15, 10, 49, 71, 75, 46, 68, 87, 61, 77,  9, 82, 82, 60, 53, 14, 41,
       79,  8,  4, 12])}, {'ts_index': 96, 'loc': 6, 'gap': 0.03228933602760356, 'distances': array([0.19131531, 0.0917863 , 0.10253539, 0.16906228, 0.09784242,
       0.13130577, 0.        , 0.17495315, 0.11619706, 0.17694409,
       0.15682584, 0.19382664]), 'delta_distances': array([0., 0., 0., 0., 0., 0., 0., 0., 0., 0., 0., 0.]), 'locations': array([10, 27, 87,  5, 86, 83,  6, 85, 77, 78, 83, 37])}], 'clusters': array([1, 1, 1, 1, 2, 1, 2, 2, 1, 2, 2, 2, 1, 1, 1, 2, 1, 0, 1, 3, 1, 1,
       3, 1, 1, 1, 0, 1, 1, 1, 3, 1, 1, 1, 1, 1, 1, 1, 1, 1, 1, 1, 1, 1,
       3, 1, 1, 1, 1, 1, 1, 1, 1, 1, 1, 1, 1, 1, 1, 1, 1, 1, 1, 1, 1, 1,
       2, 1, 1, 1, 1, 1, 1, 1, 2, 1, 1, 1, 1, 1, 1, 1, 1, 1, 1, 1, 1, 1,
       2, 1, 1, 1, 1, 1, 1, 1, 3, 1, 1, 1, 1, 1, 1, 1, 1, 1, 1, 1, 2, 1,
       1, 2, 1, 2, 1, 1, 1, 2, 1, 1, 2, 1, 1, 1, 1, 1, 0, 1, 1, 1, 1, 3,
       1, 1, 1, 1, 1, 1, 1, 2, 1, 1, 1, 1, 1, 1, 2, 1, 2, 1, 1, 1, 1, 1,
       1, 1, 1, 1, 1, 1, 1, 1, 1, 1, 0, 1, 1, 1, 2, 1, 0, 1, 1, 1, 2, 2,
       1, 1, 1, 1, 1, 1, 2, 1, 1, 1, 1, 1, 1, 1, 1, 2, 2, 2, 1, 1, 2, 0,
       1, 1]), 'time': 314.1162865161896}
lenSubsequence: 9{'RI': 0.51321608040201, 'num_clusters': 3, 'uShapelets': [{'ts_index': 63, 'loc': 37, 'gap': 0.04919685620242489, 'distances': array([0.04046308, 0.03173127, 0.02170629, 0.09685842, 0.07847346,
       0.02135098, 0.15190338, 0.03478397, 0.10269001, 0.08035318,
       0.02460028, 0.12667431, 0.05178933, 0.05389229, 0.03119927,
       0.14828059, 0.04741887, 0.02973234, 0.17926005, 0.1375391 ,
       0.03271858, 0.1720993 , 0.18123987, 0.08570174, 0.05412106,
       0.05173431, 0.16576657, 0.15633575, 0.0737868 , 0.11996162,
       0.01772457, 0.08933817, 0.1644459 , 0.17663012, 0.04391459,
       0.16191144, 0.16949795, 0.0753165 , 0.01996684, 0.08222027,
       0.07167412, 0.11990154, 0.13348758, 0.09309668, 0.13599471,
       0.08013434, 0.0727503 , 0.17807346, 0.05924296, 0.10564643,
       0.1039998 , 0.05601609, 0.10022347, 0.06277275, 0.09366048,
       0.03702612, 0.17833954, 0.03231393, 0.08215456, 0.07506014,
       0.07135209, 0.02250763, 0.01973883, 0.        , 0.11046932,
       0.08118834, 0.12558049, 0.03650221, 0.08818916, 0.06603476,
       0.06437669, 0.06440954, 0.09078488, 0.09159089, 0.14939025,
       0.05781989, 0.04261958, 0.08174249, 0.08851257, 0.11740245,
       0.13409588, 0.06905237, 0.07391193, 0.06799189, 0.167904  ,
       0.04043268, 0.02624631, 0.06060622, 0.17801525, 0.04019669,
       0.05678696, 0.10316297, 0.0910324 , 0.07872603, 0.07018023,
       0.02280136, 0.14342327, 0.06798868, 0.0352815 , 0.06237827,
       0.06457299, 0.07435417, 0.04139646, 0.06034138, 0.09019391,
       0.0305725 , 0.02424841, 0.0288593 , 0.10689013, 0.03508388,
       0.03053869, 0.04307018, 0.01834823, 0.18874401, 0.07378866,
       0.10614173, 0.04396664, 0.09756739, 0.07459922, 0.04702129,
       0.15825635, 0.09132292, 0.09970133, 0.04161788, 0.09961688,
       0.03869684, 0.16977411, 0.0704878 , 0.11973359, 0.14181756,
       0.1027457 , 0.1621867 , 0.12208085, 0.03640017, 0.07264441,
       0.07543259, 0.03822634, 0.04742695, 0.12493052, 0.15592821,
       0.15277074, 0.1159842 , 0.09805863, 0.0671124 , 0.175315  ,
       0.02727318, 0.1100924 , 0.10775914, 0.16495411, 0.06817495,
       0.02142804, 0.08677133, 0.07554957, 0.16646769, 0.07787369,
       0.11270166, 0.1074568 , 0.10561207, 0.0576511 , 0.06216049,
       0.02620343, 0.09999074, 0.01520494, 0.10872663, 0.03492996,
       0.04231564, 0.09695707, 0.01637941, 0.15648216, 0.04863616,
       0.18005893, 0.02474356, 0.13822154, 0.02021411, 0.16727153,
       0.07372879, 0.04985403, 0.02661827, 0.05192145, 0.1146262 ,
       0.11063366, 0.03817214, 0.02188917, 0.11676065, 0.08659947,
       0.07031642, 0.11873803, 0.08667421, 0.10551907, 0.09506129,
       0.01278063, 0.08906082, 0.10601599, 0.15255715, 0.05135286,
       0.183992  , 0.09126358, 0.15591624, 0.10377662, 0.12011803]), 'delta_distances': array([0., 0., 0., 0., 0., 0., 0., 0., 0., 0., 0., 0., 0., 0., 0., 0., 0.,
       0., 0., 0., 0., 0., 0., 0., 0., 0., 0., 0., 0., 0., 0., 0., 0., 0.,
       0., 0., 0., 0., 0., 0., 0., 0., 0., 0., 0., 0., 0., 0., 0., 0., 0.,
       0., 0., 0., 0., 0., 0., 0., 0., 0., 0., 0., 0., 0., 0., 0., 0., 0.,
       0., 0., 0., 0., 0., 0., 0., 0., 0., 0., 0., 0., 0., 0., 0., 0., 0.,
       0., 0., 0., 0., 0., 0., 0., 0., 0., 0., 0., 0., 0., 0., 0., 0., 0.,
       0., 0., 0., 0., 0., 0., 0., 0., 0., 0., 0., 0., 0., 0., 0., 0., 0.,
       0., 0., 0., 0., 0., 0., 0., 0., 0., 0., 0., 0., 0., 0., 0., 0., 0.,
       0., 0., 0., 0., 0., 0., 0., 0., 0., 0., 0., 0., 0., 0., 0., 0., 0.,
       0., 0., 0., 0., 0., 0., 0., 0., 0., 0., 0., 0., 0., 0., 0., 0., 0.,
       0., 0., 0., 0., 0., 0., 0., 0., 0., 0., 0., 0., 0., 0., 0., 0., 0.,
       0., 0., 0., 0., 0., 0., 0., 0., 0., 0., 0., 0., 0.]), 'locations': array([ 5, 34,  5,  8, 11, 53, 20, 82, 66, 75, 72, 73, 84, 54, 36, 63,  7,
       41,  4, 83, 61, 64, 39,  2, 55, 52,  8,  6,  9, 33,  3, 75, 54, 69,
       76,  7, 35, 83, 35, 65, 51,  7, 41, 77, 32, 83, 36, 71, 66, 65,  3,
       85, 48, 23, 24, 66, 60, 71, 84, 61, 84, 33, 37, 37, 55, 11,  4, 33,
       32, 32, 75,  3, 70, 56,  6,  5, 72, 11, 45, 34, 40, 56, 77, 11, 60,
       22, 55, 52, 44, 65, 65, 85, 14, 51, 52, 38, 58, 74, 31, 64, 14, 37,
       86, 66, 56, 60, 14, 36, 84, 67, 86, 80, 40, 31, 50, 68, 82, 14, 71,
       39, 78,  1, 24, 66, 45, 83, 77, 73, 34,  1, 74, 85, 51, 70, 72, 72,
       66, 33, 24,  5, 56, 28, 33,  9, 44, 70, 27, 62,  3, 31, 85, 58,  1,
       84, 34, 65, 66, 51, 85,  9, 45, 71, 31, 41, 34, 62, 83, 38, 78, 36,
        8, 79, 11, 27,  9, 35,  5, 42, 67,  2, 33, 81, 68,  1, 80, 17, 62,
       78, 41, 83, 15, 41,  5, 45, 47, 66, 67, 61,  2, 78])}, {'ts_index': 21, 'loc': 43, 'gap': 0.047901554415805486, 'distances': array([0.08847203, 0.05790861, 0.00663436, 0.        , 0.1272387 ,
       0.08552062, 0.15445243, 0.05080135, 0.03541593, 0.0701468 ,
       0.09626884, 0.0223306 , 0.10481935, 0.05147909, 0.07135514,
       0.03238007, 0.05726031, 0.0643324 , 0.11481337, 0.15503352,
       0.12609889, 0.05254117, 0.05710083, 0.04819318, 0.02854463,
       0.03461166, 0.04471201, 0.13347227, 0.1585163 , 0.13780251,
       0.13650298, 0.0209097 , 0.03760818, 0.04287309]), 'delta_distances': array([0., 0., 0., 0., 0., 0., 0., 0., 0., 0., 0., 0., 0., 0., 0., 0., 0.,
       0., 0., 0., 0., 0., 0., 0., 0., 0., 0., 0., 0., 0., 0., 0., 0., 0.]), 'locations': array([19,  5, 45, 43, 86,  7, 39, 50,  6, 64, 10, 51, 68, 80, 77, 83, 86,
       35, 75,  0,  7,  4, 86, 44,  6,  9, 44, 70, 20, 86, 84,  8, 48, 40])}], 'clusters': array([1, 1, 1, 1, 1, 1, 2, 1, 1, 1, 1, 1, 1, 1, 1, 2, 1, 1, 2, 1, 1, 2,
       0, 1, 1, 1, 2, 0, 1, 1, 1, 1, 2, 2, 1, 2, 2, 1, 1, 1, 1, 1, 1, 1,
       1, 1, 1, 2, 1, 1, 1, 1, 1, 1, 1, 1, 2, 1, 1, 1, 1, 1, 1, 1, 1, 1,
       1, 1, 1, 1, 1, 1, 1, 1, 2, 1, 1, 1, 1, 1, 1, 1, 1, 1, 2, 1, 1, 1,
       2, 1, 1, 1, 1, 1, 1, 1, 2, 1, 1, 1, 1, 1, 1, 1, 1, 1, 1, 1, 1, 1,
       1, 1, 1, 2, 1, 1, 1, 1, 1, 1, 2, 1, 1, 1, 1, 1, 0, 1, 1, 0, 1, 2,
       1, 1, 1, 1, 1, 1, 1, 2, 2, 1, 1, 1, 2, 1, 1, 1, 2, 1, 1, 1, 1, 2,
       1, 1, 1, 1, 1, 1, 1, 1, 1, 1, 1, 1, 1, 1, 0, 1, 0, 1, 0, 1, 0, 1,
       1, 1, 1, 1, 1, 1, 1, 1, 1, 1, 1, 1, 1, 1, 1, 1, 1, 2, 1, 2, 1, 2,
       1, 1]), 'time': 325.5161635875702}
lenSubsequence: 10{'RI': 0.5225125628140703, 'num_clusters': 3, 'uShapelets': [{'ts_index': 33, 'loc': 12, 'gap': 0.05989310841655432, 'distances': array([0.11733827, 0.04926216, 0.04883957, 0.06928754, 0.1516235 ,
       0.12566751, 0.05835916, 0.03176472, 0.08298274, 0.13027156,
       0.0596314 , 0.08176497, 0.04356838, 0.04598109, 0.04588924,
       0.08364143, 0.06429417, 0.04337083, 0.05627282, 0.03110179,
       0.06177475, 0.0708448 , 0.10694916, 0.14102706, 0.08238624,
       0.05026503, 0.07628466, 0.0643645 , 0.20112665, 0.03424613,
       0.03688764, 0.05204256, 0.05651876, 0.        , 0.17469214,
       0.09033624, 0.07287756, 0.0630349 , 0.05714578, 0.05822155,
       0.05234758, 0.06302539, 0.19764939, 0.20062095, 0.08029976,
       0.08896765, 0.179889  , 0.04391922, 0.20028993, 0.04586402,
       0.04117182, 0.18951931, 0.0768125 , 0.06096527, 0.02974885,
       0.06076094, 0.10534649, 0.11911653, 0.07055226, 0.06441004,
       0.17337152, 0.16093016, 0.03448956, 0.10801073, 0.07239013,
       0.16898937, 0.06611097, 0.05306322, 0.06347608, 0.13285202,
       0.1931553 , 0.06991264, 0.13290774, 0.19188462, 0.0846609 ,
       0.17723913, 0.07380684, 0.04856909, 0.16473785, 0.09972232,
       0.052986  , 0.04613851, 0.1753129 , 0.16497438, 0.04965578,
       0.20109453, 0.18364418, 0.18563288, 0.06092283, 0.06660205,
       0.05411876, 0.08587461, 0.03496263, 0.17101542, 0.02257941,
       0.20037839, 0.10463617, 0.12277986, 0.04476682, 0.09992022,
       0.04757733, 0.11554725, 0.06084374, 0.18289549, 0.20256285,
       0.10753309, 0.08053845, 0.10153426, 0.07708648, 0.07776127,
       0.10270173, 0.07006941, 0.07296511, 0.10582635, 0.13011796,
       0.05723447, 0.04076101, 0.09121186, 0.12352795, 0.07867657,
       0.05465771, 0.17281231, 0.15594389, 0.09469993, 0.05566507,
       0.16896883, 0.05974735, 0.18785558, 0.1485906 , 0.17567297,
       0.12615227, 0.08838632, 0.130582  , 0.0599982 , 0.11445216,
       0.06285881, 0.166042  , 0.10940771, 0.0470403 , 0.12074603,
       0.08776029, 0.09821186, 0.07774795, 0.0730323 , 0.0522511 ,
       0.05846609, 0.09039284, 0.09305358, 0.03659765, 0.10662071,
       0.04339687, 0.14429469, 0.20299408, 0.09200804, 0.05751407,
       0.15712481, 0.14466596, 0.08490177, 0.18689768, 0.04327662,
       0.20323879, 0.11605365, 0.08226744, 0.05921076, 0.0497433 ,
       0.06293225, 0.17869515, 0.06627665, 0.06627913, 0.05092166,
       0.0988228 , 0.07199041, 0.08225547, 0.20353756, 0.04345345,
       0.1963679 , 0.13710332, 0.08619451, 0.10138681, 0.15911843,
       0.04914068, 0.14074808, 0.0512602 , 0.09303238, 0.08310115,
       0.2018974 , 0.02811962, 0.09219404, 0.05872795, 0.05595209,
       0.08343573, 0.05769263, 0.05878305, 0.0470004 , 0.15711381,
       0.15655791, 0.12371902, 0.04172258, 0.15012778, 0.1166577 ]), 'delta_distances': array([0., 0., 0., 0., 0., 0., 0., 0., 0., 0., 0., 0., 0., 0., 0., 0., 0.,
       0., 0., 0., 0., 0., 0., 0., 0., 0., 0., 0., 0., 0., 0., 0., 0., 0.,
       0., 0., 0., 0., 0., 0., 0., 0., 0., 0., 0., 0., 0., 0., 0., 0., 0.,
       0., 0., 0., 0., 0., 0., 0., 0., 0., 0., 0., 0., 0., 0., 0., 0., 0.,
       0., 0., 0., 0., 0., 0., 0., 0., 0., 0., 0., 0., 0., 0., 0., 0., 0.,
       0., 0., 0., 0., 0., 0., 0., 0., 0., 0., 0., 0., 0., 0., 0., 0., 0.,
       0., 0., 0., 0., 0., 0., 0., 0., 0., 0., 0., 0., 0., 0., 0., 0., 0.,
       0., 0., 0., 0., 0., 0., 0., 0., 0., 0., 0., 0., 0., 0., 0., 0., 0.,
       0., 0., 0., 0., 0., 0., 0., 0., 0., 0., 0., 0., 0., 0., 0., 0., 0.,
       0., 0., 0., 0., 0., 0., 0., 0., 0., 0., 0., 0., 0., 0., 0., 0., 0.,
       0., 0., 0., 0., 0., 0., 0., 0., 0., 0., 0., 0., 0., 0., 0., 0., 0.,
       0., 0., 0., 0., 0., 0., 0., 0., 0., 0., 0., 0., 0.]), 'locations': array([39, 37, 45, 11,  1, 42, 35, 79, 23, 43, 70, 57,  6, 17, 59, 40, 30,
       30, 65, 44, 19, 25, 15, 59, 11, 42, 30, 72, 23, 81,  0, 57, 66, 12,
       38, 73, 20, 61, 27, 50, 65, 82, 42, 57, 70, 25, 35, 26, 77, 20,  0,
       28, 26, 42, 40, 58,  3,  4, 18, 76, 38, 37, 74, 34, 38,  3, 44, 24,
       13, 45, 35, 60, 56, 12, 18, 65, 18, 68, 70, 67, 36, 62, 69,  6,  0,
        1, 60,  9, 29, 14, 34, 12, 34, 29, 50, 46, 82, 39, 85, 20,  8, 40,
       39, 38, 30, 21, 66, 16, 63, 19, 73,  2, 59, 57, 62, 39, 58, 61,  7,
       48, 60, 85, 43, 80, 75, 57, 72, 77, 23, 16, 28, 55, 58, 31, 68, 27,
       11, 15, 42, 79, 23, 64, 17, 27, 54, 17, 17,  8, 72, 40, 59, 21, 52,
        6, 27, 19, 42, 61, 53, 26, 27, 22,  3, 23, 56, 64, 42, 15,  1, 19,
       32, 65, 61, 45,  6, 29, 48, 56, 26, 39, 23, 82, 55, 19, 10,  2, 20,
       31, 62, 26, 67, 75, 52, 27, 15, 29, 54, 52, 52, 19])}, {'ts_index': 95, 'loc': 6, 'gap': 0.0837780521846172, 'distances': array([0.07727719, 0.03883224, 0.08578412, 0.20266598, 0.20085572,
       0.08533146, 0.05239355, 0.03322097, 0.14240225, 0.10356498,
       0.05784409, 0.06632945, 0.11379633, 0.0966142 , 0.21791426,
       0.19751681, 0.20637349, 0.09146996, 0.13889135, 0.        ,
       0.08838447, 0.12511035, 0.05838251, 0.02676231, 0.02996897,
       0.21770754, 0.20657052, 0.03662569, 0.16330879, 0.09886786,
       0.21106385, 0.22913145, 0.05230072, 0.06588626]), 'delta_distances': array([0., 0., 0., 0., 0., 0., 0., 0., 0., 0., 0., 0., 0., 0., 0., 0., 0.,
       0., 0., 0., 0., 0., 0., 0., 0., 0., 0., 0., 0., 0., 0., 0., 0., 0.]), 'locations': array([30, 47, 82, 17, 49,  2, 70, 34,  2, 69,  6, 78, 63, 25, 28, 38, 10,
       84, 12,  6, 47, 62, 39, 68,  7, 49, 65, 36, 77, 75,  4, 12, 62, 42])}, {'ts_index': 85, 'loc': 9, 'gap': 0.03826005811969854, 'distances': array([0.09552693, 0.09910147, 0.11695626, 0.        , 0.11653958,
       0.16287433, 0.15689709, 0.07761523, 0.0569546 ]), 'delta_distances': array([0., 0., 0., 0., 0., 0., 0., 0., 0.]), 'locations': array([76, 82, 41,  9, 11, 44, 47, 55, 81])}], 'clusters': array([1, 1, 1, 1, 1, 1, 1, 1, 1, 1, 1, 1, 1, 1, 1, 1, 1, 1, 1, 1, 1, 1,
       1, 1, 1, 1, 1, 1, 2, 1, 1, 1, 1, 1, 2, 1, 1, 1, 1, 1, 1, 1, 2, 3,
       1, 1, 3, 1, 2, 1, 1, 2, 1, 1, 1, 1, 1, 1, 1, 1, 2, 1, 1, 1, 1, 2,
       1, 1, 1, 1, 2, 1, 1, 2, 1, 2, 1, 1, 2, 1, 1, 1, 2, 3, 1, 3, 3, 2,
       1, 1, 1, 1, 1, 2, 1, 2, 1, 1, 1, 1, 1, 1, 1, 2, 2, 1, 1, 1, 1, 1,
       1, 1, 1, 1, 1, 1, 1, 1, 1, 1, 1, 2, 1, 1, 1, 2, 1, 2, 1, 0, 1, 1,
       1, 1, 1, 1, 0, 1, 1, 1, 1, 1, 1, 1, 1, 1, 1, 1, 1, 1, 1, 1, 2, 1,
       1, 1, 1, 1, 2, 1, 2, 1, 1, 1, 1, 1, 3, 1, 1, 1, 1, 1, 1, 3, 1, 2,
       1, 1, 1, 1, 1, 1, 1, 1, 1, 2, 1, 1, 1, 1, 1, 1, 1, 1, 1, 1, 1, 1,
       1, 1]), 'time': 330.0104224681854}
