lenSubsequence: 20{'RI': 0.5711557788944723, 'num_clusters': 5, 'uShapelets': [{'ts_index': 119, 'loc': 40, 'gap': 0.03274895388896169, 'distances': array([0.19114462, 0.1748862 , 0.08242157, 0.19851403, 0.09431112,
       0.19573509, 0.1529143 , 0.19357686, 0.18393388, 0.11210662,
       0.18889068, 0.15319652, 0.17354979, 0.10723868, 0.09795837,
       0.12161661, 0.19155845, 0.15034758, 0.19262972, 0.15070675,
       0.16020154, 0.1941769 , 0.2152025 , 0.16279273, 0.15728498,
       0.17752614, 0.09039026, 0.15443907, 0.13744813, 0.20659872,
       0.19007018, 0.1819104 , 0.09398722, 0.16844239, 0.13163276,
       0.175692  , 0.15073513, 0.17514345, 0.14900338, 0.11391356,
       0.12170782, 0.13478149, 0.21690038, 0.16642368, 0.23528566,
       0.21650999, 0.21936756, 0.12811182, 0.19451407, 0.1780234 ,
       0.17182792, 0.15669304, 0.11531185, 0.09969885, 0.12781631,
       0.17036813, 0.20702325, 0.11798785, 0.14016611, 0.10736547,
       0.13581095, 0.15858683, 0.15444199, 0.08944918, 0.09881998,
       0.09999751, 0.21148403, 0.16255318, 0.16299005, 0.14058627,
       0.19787102, 0.23311786, 0.18817019, 0.19868279, 0.1726461 ,
       0.1021635 , 0.16106256, 0.12364773, 0.19243106, 0.20904234,
       0.15742919, 0.17559805, 0.18772108, 0.19730568, 0.08695901,
       0.23655177, 0.15020534, 0.07389961, 0.13884132, 0.15853942,
       0.15952867, 0.17324108, 0.08513774, 0.16477293, 0.13649505,
       0.18119332, 0.13320152, 0.08517316, 0.18935873, 0.11316654,
       0.10032272, 0.16832928, 0.12050929, 0.14015012, 0.20730157,
       0.17238311, 0.09923706, 0.14799416, 0.20398222, 0.18754165,
       0.1306515 , 0.11939838, 0.1309995 , 0.19490092, 0.07047466,
       0.19735111, 0.2205963 , 0.20105961, 0.08572199, 0.        ,
       0.16150949, 0.19959999, 0.20664225, 0.16060933, 0.19962308,
       0.16003586, 0.22922306, 0.10302731, 0.2090061 , 0.22970205,
       0.19856689, 0.20289364, 0.18980801, 0.17262661, 0.15031266,
       0.16763447, 0.15515754, 0.16230464, 0.09049001, 0.15599991,
       0.09062275, 0.1156918 , 0.12807769, 0.08448969, 0.2092824 ,
       0.17085476, 0.17338098, 0.08743593, 0.18426142, 0.13831059,
       0.16300414, 0.17260553, 0.20930318, 0.14482183, 0.16015388,
       0.2068968 , 0.14838145, 0.08343324, 0.16393098, 0.19217861,
       0.16806459, 0.16017932, 0.10459673, 0.20158798, 0.21233124,
       0.11159406, 0.13027437, 0.16289004, 0.20972796, 0.17711995,
       0.05944895, 0.20765744, 0.0896291 , 0.1458157 , 0.20771465,
       0.19698041, 0.19850169, 0.20563972, 0.17267582, 0.10821257,
       0.18563702, 0.18719346, 0.18417839, 0.15617113, 0.10583625,
       0.11001233, 0.15229653, 0.20610035, 0.15427864, 0.18429063,
       0.07529675, 0.14102752, 0.20136566, 0.13400414, 0.1814681 ,
       0.13447858, 0.19496007, 0.12779047, 0.16228674, 0.22625855]), 'delta_distances': array([0., 0., 0., 0., 0., 0., 0., 0., 0., 0., 0., 0., 0., 0., 0., 0., 0.,
       0., 0., 0., 0., 0., 0., 0., 0., 0., 0., 0., 0., 0., 0., 0., 0., 0.,
       0., 0., 0., 0., 0., 0., 0., 0., 0., 0., 0., 0., 0., 0., 0., 0., 0.,
       0., 0., 0., 0., 0., 0., 0., 0., 0., 0., 0., 0., 0., 0., 0., 0., 0.,
       0., 0., 0., 0., 0., 0., 0., 0., 0., 0., 0., 0., 0., 0., 0., 0., 0.,
       0., 0., 0., 0., 0., 0., 0., 0., 0., 0., 0., 0., 0., 0., 0., 0., 0.,
       0., 0., 0., 0., 0., 0., 0., 0., 0., 0., 0., 0., 0., 0., 0., 0., 0.,
       0., 0., 0., 0., 0., 0., 0., 0., 0., 0., 0., 0., 0., 0., 0., 0., 0.,
       0., 0., 0., 0., 0., 0., 0., 0., 0., 0., 0., 0., 0., 0., 0., 0., 0.,
       0., 0., 0., 0., 0., 0., 0., 0., 0., 0., 0., 0., 0., 0., 0., 0., 0.,
       0., 0., 0., 0., 0., 0., 0., 0., 0., 0., 0., 0., 0., 0., 0., 0., 0.,
       0., 0., 0., 0., 0., 0., 0., 0., 0., 0., 0., 0., 0.]), 'locations': array([30, 27, 41, 31, 42, 54, 42, 31, 30, 44, 50, 26, 31, 46, 63, 39, 75,
       33, 25, 21, 57, 30, 31, 33, 52, 23, 40, 32, 75, 31, 32, 24, 46, 61,
       27, 44, 31, 31, 50, 40, 33, 30, 42, 30, 28, 60, 49, 37, 30, 70, 30,
       53, 40, 41, 21, 31, 31, 50, 21, 44, 43, 27, 29, 39, 51, 45, 30, 30,
       30, 29, 66, 31, 31, 75, 28, 33, 32, 35, 28, 30, 34, 37, 24, 30, 49,
       33, 33, 41, 35, 29, 28, 50, 48, 32, 44, 30, 29, 48, 75, 34, 41, 25,
       42, 41, 66, 28, 42, 35, 26, 31, 39, 37, 23, 32, 48, 59, 66, 33, 33,
       40, 27, 33, 75, 64, 32, 27, 75, 43, 35, 27, 31, 27, 29, 32, 31, 67,
       26, 32, 41, 30, 39, 44, 30, 44, 23, 28, 62, 44, 68, 25, 32, 36, 62,
       35, 31, 66, 74, 42, 32, 29, 27, 55, 45, 30, 31, 23, 31, 28, 64, 32,
       37, 26, 40, 31, 29, 28, 28, 28, 31, 39, 27, 70, 62, 32, 46, 40, 20,
       28, 28, 27, 45, 30, 28, 40, 38, 43, 60, 33, 31, 75])}, {'ts_index': 169, 'loc': 1, 'gap': 0.02697916381610596, 'distances': array([0.16501626, 0.22825806, 0.19337448, 0.20724053, 0.26268373,
       0.22957741, 0.22761839, 0.16898246, 0.24440969, 0.26956498,
       0.24864864, 0.16260331, 0.16682113, 0.22217035, 0.26856991,
       0.25089897, 0.26197524, 0.14635962, 0.21381832, 0.16354922,
       0.24841475, 0.22684421, 0.21795389, 0.25339714, 0.18633996,
       0.23861452, 0.24213772, 0.18041892, 0.27070975, 0.17646777,
       0.25139347, 0.23253813, 0.26893438, 0.16259318, 0.15904695,
       0.28241282, 0.25006595, 0.13200671, 0.23018404, 0.21048169,
       0.23615225, 0.25622317, 0.14121513, 0.2320348 , 0.14883748,
       0.28044984, 0.17279515, 0.26766684, 0.17738758, 0.12510807,
       0.17035944, 0.26403169, 0.2374549 , 0.22470533, 0.23816468,
       0.20731994, 0.26899186, 0.16842444, 0.26780299, 0.13142338,
       0.20305912, 0.24500198, 0.2515167 , 0.24824109, 0.17346327,
       0.17780851, 0.25171689, 0.22574091, 0.19597867, 0.29754366,
       0.25930163, 0.20097616, 0.19974594, 0.24119462, 0.16058083,
       0.20507906, 0.17500834, 0.25556305, 0.19013637, 0.20241039,
       0.17623224, 0.13154168, 0.23080757, 0.19398137, 0.25210975,
       0.16690148, 0.17667421, 0.18464819, 0.23514703, 0.16691493,
       0.2180367 , 0.22743049, 0.19332469, 0.20557828, 0.2512401 ,
       0.08769828, 0.18002198, 0.14148407, 0.18596835, 0.24712718,
       0.2789164 , 0.22598353, 0.22283774, 0.14205358, 0.25503525,
       0.1660827 , 0.27613875, 0.20774043, 0.21182297, 0.13601932,
       0.184488  , 0.18007696, 0.22491857, 0.25155381, 0.23944148,
       0.18057431, 0.16855651, 0.20399842, 0.21528489, 0.254887  ,
       0.15662766, 0.14352167, 0.25879736, 0.25130096, 0.14765708,
       0.16999757, 0.21505819, 0.30916568, 0.15639727, 0.13212403,
       0.22906516, 0.13833713, 0.20255665, 0.15391795, 0.19564622,
       0.21755661, 0.25961982, 0.2302662 , 0.14718694, 0.16601834,
       0.        , 0.24854348, 0.24510257, 0.20662532, 0.22289904,
       0.12600696, 0.20491241, 0.14044537, 0.15317491, 0.23766084,
       0.12696317, 0.24207649, 0.26592467, 0.16713411, 0.16720322,
       0.19257504, 0.23558543, 0.14488553, 0.31134188, 0.22268021,
       0.16313196, 0.25680593, 0.21944289, 0.18069567, 0.23693386]), 'delta_distances': array([0., 0., 0., 0., 0., 0., 0., 0., 0., 0., 0., 0., 0., 0., 0., 0., 0.,
       0., 0., 0., 0., 0., 0., 0., 0., 0., 0., 0., 0., 0., 0., 0., 0., 0.,
       0., 0., 0., 0., 0., 0., 0., 0., 0., 0., 0., 0., 0., 0., 0., 0., 0.,
       0., 0., 0., 0., 0., 0., 0., 0., 0., 0., 0., 0., 0., 0., 0., 0., 0.,
       0., 0., 0., 0., 0., 0., 0., 0., 0., 0., 0., 0., 0., 0., 0., 0., 0.,
       0., 0., 0., 0., 0., 0., 0., 0., 0., 0., 0., 0., 0., 0., 0., 0., 0.,
       0., 0., 0., 0., 0., 0., 0., 0., 0., 0., 0., 0., 0., 0., 0., 0., 0.,
       0., 0., 0., 0., 0., 0., 0., 0., 0., 0., 0., 0., 0., 0., 0., 0., 0.,
       0., 0., 0., 0., 0., 0., 0., 0., 0., 0., 0., 0., 0., 0., 0., 0., 0.,
       0., 0., 0., 0., 0., 0., 0., 0., 0., 0., 0., 0.]), 'locations': array([ 1,  1,  0,  1,  0,  0,  0,  6,  0, 64, 70,  3,  0,  0, 67, 55, 23,
        2,  2,  2, 41, 66,  1, 53,  1, 75,  1,  1, 56,  3,  1,  0, 32,  3,
        2, 48,  0,  0,  2,  3,  1,  0,  1, 37,  2, 24,  6, 67,  3,  2,  3,
       65, 22, 72,  1,  2,  1,  2,  0,  2,  3,  0, 42, 72,  0,  3, 46,  1,
        3, 54, 67,  2,  2, 68,  1,  1,  0, 38,  2,  1,  1,  0, 43,  1, 58,
        5,  2,  1,  2,  3,  1,  1,  3,  4, 66,  1,  1,  1,  1, 63, 40,  2,
       33,  1, 41,  0,  1,  1,  1,  2,  1,  2,  1, 57, 45,  1,  1,  3,  0,
       42,  2,  0, 54,  1,  0,  1,  0, 54,  1,  2, 54,  1,  1,  2,  0,  2,
       74,  2,  1,  0,  1, 43,  2,  0,  1,  1,  2,  2,  0, 45,  2, 55, 48,
        2,  2,  0,  1,  3,  0, 74,  3, 37,  2,  1, 72])}, {'ts_index': 111, 'loc': 10, 'gap': 0.02956253099969086, 'distances': array([0.13873535, 0.08529157, 0.1438675 , 0.12301509, 0.2088513 ,
       0.19337245, 0.19122822, 0.16772806, 0.1269743 , 0.23625448,
       0.16668673, 0.22645507, 0.11041748, 0.16412697, 0.16268445,
       0.12907614, 0.17134077, 0.15542507, 0.12770031, 0.2252243 ,
       0.13923416, 0.19105818, 0.2417761 , 0.16164282, 0.17482049,
       0.11768761, 0.13234181, 0.13893881, 0.10838113, 0.16423599,
       0.20967136, 0.15571534, 0.10752029, 0.20901029, 0.19549384,
       0.14829789, 0.12468304, 0.15154997, 0.15214513, 0.17720138,
       0.13198029, 0.14957689, 0.13284129, 0.12122796, 0.14119224,
       0.10953407, 0.15725391, 0.13558072, 0.17368553, 0.16318962,
       0.14725303, 0.23674695, 0.10724118, 0.21981523, 0.14553634,
       0.17033311, 0.12657271, 0.15216507, 0.        , 0.18228474,
       0.11266155, 0.13620781, 0.10274909, 0.19442293, 0.14414667,
       0.14486798, 0.1563815 , 0.11826667, 0.11561523, 0.22128526,
       0.17760953, 0.10332023, 0.12115773, 0.19757327, 0.16341833,
       0.16405201, 0.15298504, 0.11203006, 0.16522931, 0.15598658,
       0.14859579, 0.12390971, 0.14368036, 0.14029077, 0.14360261,
       0.14626129, 0.13344578, 0.11470457, 0.14643408, 0.11615173,
       0.19771502, 0.12544935, 0.10148297, 0.10559156, 0.1939988 ,
       0.12165087, 0.12192069]), 'delta_distances': array([0., 0., 0., 0., 0., 0., 0., 0., 0., 0., 0., 0., 0., 0., 0., 0., 0.,
       0., 0., 0., 0., 0., 0., 0., 0., 0., 0., 0., 0., 0., 0., 0., 0., 0.,
       0., 0., 0., 0., 0., 0., 0., 0., 0., 0., 0., 0., 0., 0., 0., 0., 0.,
       0., 0., 0., 0., 0., 0., 0., 0., 0., 0., 0., 0., 0., 0., 0., 0., 0.,
       0., 0., 0., 0., 0., 0., 0., 0., 0., 0., 0., 0., 0., 0., 0., 0., 0.,
       0., 0., 0., 0., 0., 0., 0., 0., 0., 0., 0., 0.]), 'locations': array([ 5,  6, 11,  4, 11, 75,  1,  8,  8,  3,  6, 42,  6,  2,  0,  6,  6,
        8,  5,  5, 10,  7, 43,  0,  5,  7,  7,  9,  7,  4, 67,  0,  1, 28,
       11, 10,  6,  5,  5,  6,  6, 11,  7,  6,  6,  9,  0,  9,  8,  7,  5,
       49, 12, 75,  4,  7,  5, 10, 10,  2,  1,  5,  9,  5,  4,  5,  9,  8,
       13, 64,  4, 14,  6,  0, 11,  4, 10, 11, 65,  6,  7,  5,  7, 12,  9,
       10,  6,  8,  0,  6, 68,  6,  6, 10,  5,  8,  8])}, {'ts_index': 186, 'loc': 17, 'gap': 0.03366630604973986, 'distances': array([0.16912432, 0.1938319 , 0.14419269, 0.1683657 , 0.20121725,
       0.12194378, 0.19798083, 0.10111266, 0.21173856, 0.1406275 ,
       0.21041204, 0.15858826, 0.18624075, 0.07754197, 0.18094715,
       0.        , 0.15468819]), 'delta_distances': array([0., 0., 0., 0., 0., 0., 0., 0., 0., 0., 0., 0., 0., 0., 0., 0., 0.]), 'locations': array([27, 18, 20, 22,  7, 22,  9, 11, 10, 26,  9, 20, 18, 19, 20, 17, 19])}, {'ts_index': 98, 'loc': 10, 'gap': 0.07651226178263568, 'distances': array([0.16170605, 0.1768196 , 0.17546416, 0.16706117, 0.31119767,
       0.23542577, 0.30628731, 0.17826661, 0.28454494, 0.        ,
       0.15592175, 0.15918224, 0.14880052]), 'delta_distances': array([0., 0., 0., 0., 0., 0., 0., 0., 0., 0., 0., 0., 0.]), 'locations': array([13, 10,  8,  5,  4,  3,  0, 15,  2, 10,  9, 12,  8])}], 'clusters': array([2, 3, 1, 2, 1, 3, 3, 3, 5, 2, 5, 5, 3, 1, 1, 2, 2, 3, 5, 3, 0, 2,
       3, 2, 3, 3, 1, 3, 3, 2, 3, 3, 1, 2, 4, 2, 3, 3, 5, 2, 2, 3, 3, 2,
       3, 3, 3, 3, 2, 3, 2, 4, 2, 1, 3, 2, 2, 2, 3, 1, 0, 5, 3, 1, 1, 1,
       3, 3, 2, 3, 2, 3, 3, 3, 3, 1, 2, 2, 3, 3, 2, 3, 3, 3, 1, 3, 3, 1,
       2, 3, 2, 0, 1, 2, 3, 2, 2, 1, 5, 2, 1, 3, 2, 2, 2, 3, 1, 2, 3, 3,
       2, 3, 3, 2, 1, 2, 2, 2, 1, 1, 3, 3, 3, 5, 2, 3, 2, 1, 3, 3, 3, 2,
       2, 2, 3, 4, 3, 2, 1, 2, 1, 3, 3, 1, 5, 2, 2, 1, 3, 3, 2, 2, 3, 3,
       2, 2, 3, 1, 2, 3, 2, 2, 1, 3, 3, 1, 3, 2, 2, 2, 1, 3, 1, 3, 3, 3,
       2, 3, 2, 1, 2, 3, 2, 3, 1, 1, 4, 2, 2, 2, 1, 3, 2, 3, 3, 2, 5, 3,
       2, 3]), 'time': 52.730775594711304}
lenSubsequence: 22{'RI': 0.5661306532663316, 'num_clusters': 3, 'uShapelets': [{'ts_index': 148, 'loc': 0, 'gap': 0.03671844708674171, 'distances': array([0.25656244, 0.3235856 , 0.3074017 , 0.2977495 , 0.41619135,
       0.30174755, 0.38763273, 0.29456898, 0.27250257, 0.31388642,
       0.33163367, 0.39383563, 0.38014227, 0.34353015, 0.33272207,
       0.3132057 , 0.25452421, 0.36051566, 0.38101403, 0.38565015,
       0.37778802, 0.25415724, 0.345756  , 0.2615028 , 0.36783306,
       0.3660011 , 0.33117849, 0.32122463, 0.32693814, 0.27823454,
       0.36878691, 0.32880266, 0.28865995, 0.2260831 , 0.40237262,
       0.27614573, 0.35191601, 0.29215761, 0.39184557, 0.28506735,
       0.26046447, 0.39674938, 0.34125731, 0.30571833, 0.27723085,
       0.29855496, 0.29595876, 0.3632192 , 0.28932036, 0.34390808,
       0.26960969, 0.39634125, 0.29787217, 0.3257806 , 0.38934946,
       0.2918746 , 0.2622664 , 0.29123465, 0.39015874, 0.3112309 ,
       0.37007613, 0.3574596 , 0.33751893, 0.28962899, 0.28384484,
       0.27760197, 0.3056991 , 0.38616893, 0.22195958, 0.35783228,
       0.20192331, 0.26734937, 0.30804595, 0.25008756, 0.33553622,
       0.29388967, 0.24431988, 0.32525766, 0.31633745, 0.30992368,
       0.28425916, 0.39519745, 0.4027547 , 0.29716095, 0.29059188,
       0.32413469, 0.29362771, 0.30914902, 0.29504332, 0.32143598,
       0.28295326, 0.37878086, 0.30989255, 0.2561849 , 0.34082502,
       0.26263907, 0.2224462 , 0.28284208, 0.35955536, 0.28209428,
       0.32735089, 0.37852145, 0.31239482, 0.32455336, 0.29062815,
       0.29673858, 0.28431291, 0.28622322, 0.33940089, 0.25199286,
       0.30334739, 0.31939742, 0.38774875, 0.2597978 , 0.28131416,
       0.27412044, 0.26212253, 0.24576064, 0.31933021, 0.31672687,
       0.36586031, 0.36642774, 0.30323254, 0.34014894, 0.26732089,
       0.39042333, 0.25935928, 0.38020756, 0.40651742, 0.31271837,
       0.33074769, 0.24046517, 0.28152839, 0.28498561, 0.29628434,
       0.38404943, 0.33901318, 0.22002376, 0.3839608 , 0.26947254,
       0.30818228, 0.32750607, 0.3450512 , 0.26002165, 0.38021733,
       0.2584661 , 0.23372457, 0.32901743, 0.        , 0.30801486,
       0.23327149, 0.28897597, 0.31740325, 0.42050947, 0.27790653,
       0.2287038 , 0.36278064, 0.27041667, 0.20328451, 0.27859293,
       0.26071915, 0.22978148, 0.29424382, 0.3042571 , 0.38441248,
       0.37620106, 0.32098957, 0.26887386, 0.25779844, 0.24407359,
       0.31323423, 0.32518661, 0.33969046, 0.35468326, 0.296586  ,
       0.3139903 , 0.24352613, 0.2990122 , 0.25444071, 0.32737071,
       0.28687536, 0.33643348, 0.24295526, 0.36231174, 0.29909167,
       0.28799748, 0.3787453 , 0.27516418, 0.27574027, 0.3259036 ,
       0.29493716, 0.34728154, 0.25993975, 0.43007506, 0.35337782,
       0.27595601, 0.38381219, 0.32293709, 0.30654876, 0.34314349]), 'delta_distances': array([0., 0., 0., 0., 0., 0., 0., 0., 0., 0., 0., 0., 0., 0., 0., 0., 0.,
       0., 0., 0., 0., 0., 0., 0., 0., 0., 0., 0., 0., 0., 0., 0., 0., 0.,
       0., 0., 0., 0., 0., 0., 0., 0., 0., 0., 0., 0., 0., 0., 0., 0., 0.,
       0., 0., 0., 0., 0., 0., 0., 0., 0., 0., 0., 0., 0., 0., 0., 0., 0.,
       0., 0., 0., 0., 0., 0., 0., 0., 0., 0., 0., 0., 0., 0., 0., 0., 0.,
       0., 0., 0., 0., 0., 0., 0., 0., 0., 0., 0., 0., 0., 0., 0., 0., 0.,
       0., 0., 0., 0., 0., 0., 0., 0., 0., 0., 0., 0., 0., 0., 0., 0., 0.,
       0., 0., 0., 0., 0., 0., 0., 0., 0., 0., 0., 0., 0., 0., 0., 0., 0.,
       0., 0., 0., 0., 0., 0., 0., 0., 0., 0., 0., 0., 0., 0., 0., 0., 0.,
       0., 0., 0., 0., 0., 0., 0., 0., 0., 0., 0., 0., 0., 0., 0., 0., 0.,
       0., 0., 0., 0., 0., 0., 0., 0., 0., 0., 0., 0., 0., 0., 0., 0., 0.,
       0., 0., 0., 0., 0., 0., 0., 0., 0., 0., 0., 0., 0.]), 'locations': array([ 1,  0,  1,  0, 61,  1,  0,  0,  0,  5, 37, 65, 69,  3,  6,  2,  0,
        0, 35, 54, 23,  1,  0,  0, 33, 65,  2,  0,  0,  0,  0,  0,  2,  1,
       55,  2,  1,  0, 21,  3,  1, 42,  0,  0,  2,  2,  0,  0,  1, 37,  1,
       46,  3,  4, 65,  1,  1,  3, 61,  4, 24,  1,  1,  0,  3,  0,  1,  1,
        1,  1,  1,  1,  0,  0,  0,  2,  0,  2,  1,  1,  2,  2, 64,  2,  2,
        1,  1,  4,  1,  1,  0, 37,  3,  1,  1,  1,  0,  6, 41,  0,  1, 58,
        4,  2,  0,  1,  3,  1,  1,  0,  3,  3, 65,  1,  7,  0,  1,  1,  1,
        2, 62,  1,  1,  0,  1, 41,  0,  1, 42,  1,  1,  0,  0,  1,  0, 57,
       44,  0,  0,  1,  2,  1,  1,  3, 42,  2,  0,  1,  0,  0,  0,  1,  0,
       54,  0,  1, 54,  4,  0,  1,  2,  0,  2,  0, 73, 46,  2,  0,  0,  0,
        1,  0,  3,  1,  0,  1,  1,  1,  1,  1,  0, 43,  1,  1,  2,  2, 47,
        1,  0,  0,  5,  1,  2, 66, 73,  3, 36,  1,  0,  1])}, {'ts_index': 58, 'loc': 5, 'gap': 0.07818111053609672, 'distances': array([0.15183195, 0.1313317 , 0.12573417, 0.19894505, 0.12458957,
       0.09766345, 0.32987743, 0.15756754, 0.12255654, 0.19902618,
       0.32329585, 0.12661969, 0.23367043, 0.11051252, 0.        ,
       0.3054371 , 0.09904799, 0.11965701, 0.13965151, 0.29833338,
       0.12862571, 0.13438879, 0.12490734, 0.13442485, 0.13950085,
       0.12260459, 0.13809941, 0.1360894 , 0.11010775, 0.11163126,
       0.11531043, 0.15139186, 0.09732315, 0.11357438]), 'delta_distances': array([0., 0., 0., 0., 0., 0., 0., 0., 0., 0., 0., 0., 0., 0., 0., 0., 0.,
       0., 0., 0., 0., 0., 0., 0., 0., 0., 0., 0., 0., 0., 0., 0., 0., 0.]), 'locations': array([18, 20,  6,  4,  4,  5, 41,  6, 10,  7,  1, 13,  3,  4,  5, 30,  9,
       11,  3,  0,  5,  2,  8, 27, 12,  4, 16,  7, 14, 10,  5,  5, 15,  5])}, {'ts_index': 34, 'loc': 20, 'gap': 0.01938964715169217, 'distances': array([0.21741308, 0.        , 0.2048885 , 0.15040555, 0.23220512,
       0.17787936]), 'delta_distances': array([0., 0., 0., 0., 0., 0.]), 'locations': array([ 8, 20,  9,  9,  9,  8])}], 'clusters': array([1, 1, 1, 1, 2, 1, 2, 1, 1, 1, 1, 2, 2, 1, 1, 1, 1, 1, 2, 2, 0, 1,
       1, 1, 2, 1, 1, 1, 1, 1, 2, 1, 1, 1, 3, 1, 1, 1, 0, 1, 1, 2, 1, 1,
       1, 1, 1, 1, 1, 1, 1, 3, 1, 1, 2, 1, 1, 1, 2, 1, 0, 1, 1, 1, 1, 1,
       1, 2, 1, 1, 1, 1, 1, 1, 1, 1, 1, 1, 1, 1, 1, 2, 2, 1, 1, 1, 1, 1,
       1, 1, 1, 3, 1, 1, 1, 1, 1, 1, 1, 1, 1, 2, 1, 1, 1, 1, 1, 1, 1, 1,
       1, 1, 2, 1, 1, 1, 1, 1, 1, 1, 1, 1, 1, 1, 1, 2, 1, 2, 2, 1, 1, 1,
       1, 1, 1, 2, 1, 1, 2, 1, 1, 1, 1, 1, 2, 1, 1, 1, 1, 1, 1, 1, 1, 2,
       1, 1, 1, 1, 1, 1, 1, 1, 1, 1, 2, 2, 1, 1, 1, 1, 1, 1, 1, 1, 1, 1,
       1, 1, 1, 1, 1, 1, 1, 1, 1, 1, 2, 1, 1, 1, 1, 1, 1, 2, 1, 1, 2, 1,
       1, 1]), 'time': 26.242850303649902}
lenSubsequence: 24{'RI': 0.5481909547738694, 'num_clusters': 3, 'uShapelets': [{'ts_index': 80, 'loc': 2, 'gap': 0.04176632467638547, 'distances': array([0.19796897, 0.24662268, 0.23470229, 0.2021812 , 0.2973536 ,
       0.19547222, 0.27278801, 0.24378043, 0.22670017, 0.20645321,
       0.24111435, 0.34251369, 0.32965615, 0.2202655 , 0.22577226,
       0.22406832, 0.24233063, 0.26585377, 0.30064966, 0.23806006,
       0.30601156, 0.19530391, 0.23080686, 0.18059705, 0.2950224 ,
       0.31264459, 0.24041879, 0.17954622, 0.1930911 , 0.21032453,
       0.27090595, 0.25006351, 0.18809584, 0.2669806 , 0.32920448,
       0.1593448 , 0.26108791, 0.21337834, 0.31477074, 0.21746088,
       0.20790108, 0.35141442, 0.22103034, 0.2542193 , 0.21782956,
       0.16950546, 0.27925276, 0.23113688, 0.21208054, 0.27462743,
       0.20091992, 0.30097919, 0.1887049 , 0.2267945 , 0.34631394,
       0.13784614, 0.20940215, 0.2239809 , 0.34436631, 0.20346684,
       0.28607936, 0.30087169, 0.24072457, 0.21015354, 0.1878125 ,
       0.20179409, 0.23675947, 0.25678073, 0.22641431, 0.212048  ,
       0.20880014, 0.20385762, 0.21683835, 0.24992488, 0.20093076,
       0.23719344, 0.210372  , 0.22479115, 0.21843707, 0.20688562,
       0.        , 0.2929162 , 0.34594233, 0.212641  , 0.18616721,
       0.22576643, 0.20398633, 0.23630442, 0.21832016, 0.24879139,
       0.23978737, 0.32614246, 0.23545809, 0.22391572, 0.24892474,
       0.16961392, 0.20608127, 0.17974004, 0.27135917, 0.19083933,
       0.23734418, 0.29358056, 0.20252653, 0.24131911, 0.16983964,
       0.24546597, 0.20662124, 0.17357198, 0.23612029, 0.23371163,
       0.22090339, 0.20589636, 0.32232001, 0.17172428, 0.1985289 ,
       0.21326938, 0.18302139, 0.20570675, 0.18354008, 0.19996927,
       0.32766671, 0.29497535, 0.26961124, 0.23551032, 0.22972985,
       0.29613571, 0.23758572, 0.26963981, 0.30226153, 0.24585648,
       0.20083909, 0.12734881, 0.15730003, 0.18454711, 0.21052998,
       0.28226539, 0.279546  , 0.21303864, 0.25774698, 0.24765647,
       0.19483122, 0.21030325, 0.21894382, 0.20789237, 0.33620371,
       0.18403994, 0.21129769, 0.22064948, 0.2472072 , 0.24972425,
       0.20753286, 0.2337111 , 0.20021007, 0.35406732, 0.18564524,
       0.20223198, 0.22878938, 0.19610394, 0.18822274, 0.23343486,
       0.19902316, 0.1964531 , 0.24111915, 0.24214974, 0.29909358,
       0.31906121, 0.24443635, 0.21171901, 0.21670375, 0.19471115,
       0.22338874, 0.28576801, 0.23486708, 0.23162296, 0.25657147,
       0.24425745, 0.20503346, 0.2602037 , 0.23150634, 0.24339657,
       0.22681252, 0.31026526, 0.15715727, 0.21623336, 0.19724218,
       0.17447571, 0.27685702, 0.18983719, 0.18632672, 0.23376481,
       0.21826245, 0.25585178, 0.17606334, 0.33982792, 0.22586736,
       0.21838758, 0.23774562, 0.23509484, 0.21750409, 0.22542797]), 'delta_distances': array([0., 0., 0., 0., 0., 0., 0., 0., 0., 0., 0., 0., 0., 0., 0., 0., 0.,
       0., 0., 0., 0., 0., 0., 0., 0., 0., 0., 0., 0., 0., 0., 0., 0., 0.,
       0., 0., 0., 0., 0., 0., 0., 0., 0., 0., 0., 0., 0., 0., 0., 0., 0.,
       0., 0., 0., 0., 0., 0., 0., 0., 0., 0., 0., 0., 0., 0., 0., 0., 0.,
       0., 0., 0., 0., 0., 0., 0., 0., 0., 0., 0., 0., 0., 0., 0., 0., 0.,
       0., 0., 0., 0., 0., 0., 0., 0., 0., 0., 0., 0., 0., 0., 0., 0., 0.,
       0., 0., 0., 0., 0., 0., 0., 0., 0., 0., 0., 0., 0., 0., 0., 0., 0.,
       0., 0., 0., 0., 0., 0., 0., 0., 0., 0., 0., 0., 0., 0., 0., 0., 0.,
       0., 0., 0., 0., 0., 0., 0., 0., 0., 0., 0., 0., 0., 0., 0., 0., 0.,
       0., 0., 0., 0., 0., 0., 0., 0., 0., 0., 0., 0., 0., 0., 0., 0., 0.,
       0., 0., 0., 0., 0., 0., 0., 0., 0., 0., 0., 0., 0., 0., 0., 0., 0.,
       0., 0., 0., 0., 0., 0., 0., 0., 0., 0., 0., 0., 0.]), 'locations': array([ 2,  0,  3,  0, 11,  2,  0,  0,  0,  4,  0, 63, 70,  2,  9,  2,  0,
        1,  0,  0, 34,  2,  1,  2,  0, 65,  3,  1,  1,  1,  7,  1,  5,  1,
       66,  3,  0,  0, 33,  5,  2, 41,  0,  0,  2,  2,  1,  0,  1,  0,  1,
        0,  5,  4, 64,  3,  2,  2, 62,  5, 22,  1,  2,  0,  6,  6,  2,  1,
        1,  1,  1,  1,  2,  2,  1,  2,  1,  2,  1,  3,  2,  2, 60,  2,  3,
        1,  3,  3,  1,  1,  0, 39,  5,  1,  0,  1,  1,  6,  0,  1,  3, 64,
        4,  1,  2,  1,  4,  3,  1,  7,  4,  3, 66,  1,  7,  0,  1,  2,  2,
        3, 63,  2,  2,  0,  2,  0,  7,  4,  0,  1,  1,  1,  2,  2,  2,  0,
        1,  2,  0,  2,  5,  2,  1,  5,  0,  3,  1,  0,  2,  1,  1,  1,  2,
        4,  2,  2,  0,  5,  1,  1,  2,  0,  4,  2,  2, 48,  2,  2,  2,  1,
        2,  0,  4,  1,  0,  0,  2,  0,  2,  2,  0, 45,  2,  0,  5,  4,  1,
        2,  1,  0,  5,  0,  3,  8,  2,  3,  0,  3,  1,  1])}, {'ts_index': 164, 'loc': 11, 'gap': 0.07314316436253648, 'distances': array([0.21855529, 0.14595846, 0.23169111, 0.13878764, 0.3539002 ,
       0.16949751, 0.15090457, 0.19548084, 0.31594468, 0.14164629,
       0.17663518, 0.2506872 , 0.13957416, 0.12618817, 0.33022281,
       0.16057214, 0.14877476, 0.15989742, 0.31085043, 0.16108062,
       0.17737957, 0.13820321, 0.14879647, 0.13857929, 0.15565312,
       0.15543662, 0.12894845, 0.11731057, 0.1658764 , 0.        ,
       0.13757041, 0.14862794, 0.14727335, 0.12125596]), 'delta_distances': array([0., 0., 0., 0., 0., 0., 0., 0., 0., 0., 0., 0., 0., 0., 0., 0., 0.,
       0., 0., 0., 0., 0., 0., 0., 0., 0., 0., 0., 0., 0., 0., 0., 0., 0.]), 'locations': array([18,  6, 13,  4, 43,  6,  6,  9,  1, 11, 11,  2,  5,  5, 29, 10, 10,
        3,  0,  4,  5,  9, 11,  7, 10,  7,  5,  8, 13, 11,  2, 11,  5, 17])}], 'clusters': array([1, 1, 1, 1, 2, 1, 1, 1, 1, 1, 1, 2, 0, 1, 1, 1, 1, 1, 2, 1, 0, 1,
       1, 1, 2, 2, 1, 1, 1, 1, 1, 1, 1, 1, 2, 1, 1, 1, 0, 1, 1, 2, 1, 1,
       1, 1, 2, 1, 1, 1, 1, 0, 1, 1, 2, 1, 1, 1, 2, 1, 0, 2, 1, 1, 1, 1,
       1, 1, 1, 1, 1, 1, 1, 1, 1, 1, 1, 1, 1, 1, 1, 2, 2, 1, 1, 1, 1, 1,
       1, 1, 1, 0, 1, 1, 1, 1, 1, 1, 1, 1, 1, 2, 1, 1, 1, 1, 1, 1, 1, 1,
       1, 1, 2, 1, 1, 1, 1, 1, 1, 1, 2, 2, 1, 1, 1, 2, 1, 1, 2, 1, 1, 1,
       1, 1, 1, 2, 2, 1, 1, 1, 1, 1, 1, 1, 2, 1, 1, 1, 1, 1, 1, 1, 1, 2,
       1, 1, 1, 1, 1, 1, 1, 1, 1, 1, 2, 2, 1, 1, 1, 1, 1, 2, 1, 1, 1, 1,
       1, 1, 1, 1, 1, 2, 1, 1, 1, 1, 1, 1, 1, 1, 1, 1, 1, 2, 1, 1, 1, 1,
       1, 1]), 'time': 25.008922576904297}
lenSubsequence: 29{'RI': 0.5974371859296482, 'num_clusters': 3, 'uShapelets': [{'ts_index': 114, 'loc': 17, 'gap': 0.032990858591985944, 'distances': array([0.132742  , 0.12454213, 0.12845535, 0.1186809 , 0.11089017,
       0.11322762, 0.13268812, 0.12541426, 0.18310597, 0.12337613,
       0.211015  , 0.18982788, 0.21723632, 0.13444736, 0.11881176,
       0.0972702 , 0.106656  , 0.13188657, 0.20873764, 0.17470603,
       0.24266065, 0.16124332, 0.13024992, 0.1279118 , 0.154828  ,
       0.14541872, 0.12697932, 0.13599182, 0.18437152, 0.15802214,
       0.14459564, 0.15356204, 0.12557311, 0.20276328, 0.18903234,
       0.12312509, 0.16453583, 0.15298678, 0.24828402, 0.13237432,
       0.12098941, 0.15873048, 0.18190512, 0.12566517, 0.10947191,
       0.14250102, 0.15701067, 0.12966366, 0.10624695, 0.18818941,
       0.11769943, 0.21486346, 0.08854037, 0.14707946, 0.19979767,
       0.13250539, 0.13527101, 0.10043155, 0.13557135, 0.10634653,
       0.22523901, 0.18277812, 0.13315135, 0.11464294, 0.12390808,
       0.10972244, 0.11574797, 0.13806809, 0.1262472 , 0.14229843,
       0.10546304, 0.14973539, 0.16400695, 0.19299258, 0.15034544,
       0.22089395, 0.15128277, 0.10573471, 0.10251637, 0.13804656,
       0.16635243, 0.18765013, 0.1664565 , 0.12540501, 0.12118226,
       0.14790132, 0.16497792, 0.12130969, 0.10191345, 0.14754253,
       0.19510992, 0.24081582, 0.11242313, 0.13760977, 0.0981111 ,
       0.16807764, 0.16147762, 0.11056439, 0.22964431, 0.15300557,
       0.1012214 , 0.12326799, 0.10100936, 0.10661558, 0.14372758,
       0.16034494, 0.09648971, 0.09525652, 0.12478818, 0.19044122,
       0.10208388, 0.11107342, 0.18447639, 0.11244369, 0.        ,
       0.14875576, 0.1212875 , 0.1043601 , 0.1542916 , 0.15540622,
       0.11572704, 0.14868457, 0.08827942, 0.21805134, 0.11997753,
       0.14185104, 0.1602053 , 0.13014744, 0.12106115, 0.14989817,
       0.10974894, 0.10914203, 0.11967402, 0.107275  , 0.1350334 ,
       0.22801824, 0.18051634, 0.16291751, 0.09926031, 0.11481725,
       0.1015861 , 0.09571126, 0.1126267 , 0.0844642 , 0.17747429,
       0.14996047, 0.15464316, 0.09628548, 0.14765103, 0.17245467,
       0.13399884, 0.12140727, 0.16332652, 0.12177391, 0.12225717,
       0.1257125 , 0.19528528, 0.09507086, 0.1235265 , 0.14572043,
       0.14892627, 0.21841433, 0.14832804, 0.12009249, 0.10834094,
       0.18177655, 0.1519628 , 0.15367325, 0.12463486, 0.13306686,
       0.09151266, 0.1323689 , 0.09848767, 0.13921911, 0.12892202,
       0.13770437, 0.10516418, 0.14847115, 0.12866565, 0.10089376,
       0.11785098, 0.14424487, 0.09291769, 0.14095397, 0.13417805,
       0.14191317, 0.2123698 , 0.08747895, 0.15095703, 0.14138512,
       0.10922195, 0.12874041, 0.11164214, 0.08635639, 0.09596811,
       0.09228023, 0.21316163, 0.10748074, 0.09548774, 0.14158313]), 'delta_distances': array([0., 0., 0., 0., 0., 0., 0., 0., 0., 0., 0., 0., 0., 0., 0., 0., 0.,
       0., 0., 0., 0., 0., 0., 0., 0., 0., 0., 0., 0., 0., 0., 0., 0., 0.,
       0., 0., 0., 0., 0., 0., 0., 0., 0., 0., 0., 0., 0., 0., 0., 0., 0.,
       0., 0., 0., 0., 0., 0., 0., 0., 0., 0., 0., 0., 0., 0., 0., 0., 0.,
       0., 0., 0., 0., 0., 0., 0., 0., 0., 0., 0., 0., 0., 0., 0., 0., 0.,
       0., 0., 0., 0., 0., 0., 0., 0., 0., 0., 0., 0., 0., 0., 0., 0., 0.,
       0., 0., 0., 0., 0., 0., 0., 0., 0., 0., 0., 0., 0., 0., 0., 0., 0.,
       0., 0., 0., 0., 0., 0., 0., 0., 0., 0., 0., 0., 0., 0., 0., 0., 0.,
       0., 0., 0., 0., 0., 0., 0., 0., 0., 0., 0., 0., 0., 0., 0., 0., 0.,
       0., 0., 0., 0., 0., 0., 0., 0., 0., 0., 0., 0., 0., 0., 0., 0., 0.,
       0., 0., 0., 0., 0., 0., 0., 0., 0., 0., 0., 0., 0., 0., 0., 0., 0.,
       0., 0., 0., 0., 0., 0., 0., 0., 0., 0., 0., 0., 0.]), 'locations': array([ 6,  4, 14,  5, 12,  5,  5,  4,  5, 13, 66,  0,  9, 13, 30,  6,  4,
        4,  0,  1, 42,  5,  5,  5,  0,  0,  8,  5, 61,  6,  6,  5, 15,  5,
        0,  8,  4,  4, 64, 10,  6,  0,  0,  3,  6,  7,  5,  2,  4,  0,  6,
       60, 15, 19,  0,  7,  5, 10,  0, 13, 22,  6,  4,  7, 17, 13,  5,  4,
        6,  4,  7,  7,  4, 66,  8, 10,  3,  6,  6,  6,  7,  5,  0,  6, 16,
        7,  8, 12,  7,  4,  3, 41, 13,  7,  7,  5,  4, 11, 65,  8,  9,  0,
       11,  8,  6,  5,  9,  8,  7,  4,  7, 12,  0,  5, 17,  6,  5,  5,  6,
       13,  0,  6,  8,  3,  6,  0,  4, 19,  0,  7,  7,  5,  4,  6,  7,  0,
        0,  8,  6,  6,  8, 17,  3, 13,  0,  7,  4, 13,  5,  3,  6,  5,  7,
        5,  6,  7,  0, 14,  4,  5,  6,  4, 14,  5,  0,  0,  6,  4,  5,  5,
        7,  4, 10,  4,  5,  4,  7,  7,  8,  7,  3,  0,  6,  5,  8, 11, 59,
        5,  5,  2, 11,  6,  8,  5, 10, 13,  0,  5,  6,  5])}, {'ts_index': 18, 'loc': 0, 'gap': 0.07039616175871408, 'distances': array([0.13165536, 0.15506417, 0.21235766, 0.28071298, 0.        ,
       0.11787585, 0.30051346, 0.18860444, 0.1784359 , 0.215176  ,
       0.30855219, 0.13880012, 0.16316625, 0.24734279, 0.17806139,
       0.29494914, 0.21137067, 0.20191173, 0.13645947, 0.2138828 ,
       0.15361711, 0.32581711, 0.18773638, 0.15720481, 0.18337901,
       0.14533043, 0.12640684, 0.105393  , 0.15692886, 0.13215179,
       0.14207536, 0.14006643, 0.14079831, 0.12846929]), 'delta_distances': array([0., 0., 0., 0., 0., 0., 0., 0., 0., 0., 0., 0., 0., 0., 0., 0., 0.,
       0., 0., 0., 0., 0., 0., 0., 0., 0., 0., 0., 0., 0., 0., 0., 0., 0.]), 'locations': array([ 6,  3,  3, 10,  0,  1, 34,  3,  7,  0,  0,  3,  2,  0,  0, 25, 11,
        7,  9,  9,  6, 44,  0,  7,  0,  3,  0,  1,  4,  1,  4,  1,  0,  1])}], 'clusters': array([1, 1, 1, 1, 1, 1, 1, 1, 2, 1, 2, 2, 0, 1, 1, 1, 1, 1, 2, 2, 0, 1,
       1, 1, 1, 1, 1, 1, 2, 1, 1, 1, 1, 2, 2, 1, 1, 1, 0, 1, 1, 1, 2, 1,
       1, 1, 1, 1, 1, 2, 1, 0, 1, 1, 2, 1, 1, 1, 1, 1, 0, 2, 1, 1, 1, 1,
       1, 1, 1, 1, 1, 1, 1, 2, 1, 2, 1, 1, 1, 1, 1, 2, 1, 1, 1, 1, 1, 1,
       1, 1, 2, 0, 1, 1, 1, 1, 1, 1, 2, 1, 1, 1, 1, 1, 1, 1, 1, 1, 1, 2,
       1, 1, 2, 1, 1, 1, 1, 1, 1, 1, 1, 1, 1, 2, 1, 1, 1, 1, 1, 1, 1, 1,
       1, 1, 1, 2, 2, 1, 1, 1, 1, 1, 1, 1, 2, 1, 1, 1, 1, 1, 1, 1, 1, 1,
       1, 1, 2, 1, 1, 1, 1, 2, 1, 1, 1, 2, 1, 1, 1, 1, 1, 1, 1, 1, 1, 1,
       1, 1, 1, 1, 1, 1, 1, 1, 1, 1, 2, 1, 1, 1, 1, 1, 1, 1, 1, 1, 2, 1,
       1, 1]), 'time': 22.285651922225952}
lenSubsequence: 31{'RI': 0.581356783919598, 'num_clusters': 3, 'uShapelets': [{'ts_index': 124, 'loc': 2, 'gap': 0.04080098160148249, 'distances': array([0.12876511, 0.16330367, 0.18029351, 0.1254592 , 0.18401665,
       0.16202327, 0.18329496, 0.17141697, 0.1690437 , 0.15250239,
       0.21877593, 0.31388751, 0.32564729, 0.22577413, 0.22445787,
       0.13683658, 0.11641186, 0.15537958, 0.27439403, 0.20336198,
       0.27627543, 0.13882969, 0.16230704, 0.13926587, 0.22867159,
       0.24187293, 0.18151523, 0.16800236, 0.23172836, 0.13997244,
       0.16607283, 0.20005004, 0.20057258, 0.19215117, 0.27758381,
       0.14920275, 0.19368617, 0.15307713, 0.28042603, 0.17257207,
       0.12691616, 0.26621252, 0.20131967, 0.09994695, 0.17173582,
       0.15508071, 0.19608187, 0.16391512, 0.1257652 , 0.22911305,
       0.14846202, 0.27183964, 0.14329706, 0.19001249, 0.28716117,
       0.15372957, 0.14033079, 0.17475482, 0.2638611 , 0.16877001,
       0.2508558 , 0.21418218, 0.15646235, 0.13284083, 0.19766104,
       0.17818754, 0.14400794, 0.17325864, 0.13458392, 0.19232668,
       0.10227293, 0.15185757, 0.18005638, 0.18699284, 0.17731605,
       0.16797176, 0.1155985 , 0.13105012, 0.17925725, 0.16448375,
       0.1591674 , 0.20202694, 0.26285508, 0.14970755, 0.19757127,
       0.15483947, 0.19128936, 0.15054143, 0.11857783, 0.17053147,
       0.14174513, 0.27525494, 0.19203183, 0.1656991 , 0.17817636,
       0.15340465, 0.16347894, 0.1552335 , 0.26699632, 0.18361075,
       0.15217748, 0.21945533, 0.13060527, 0.15182702, 0.13156641,
       0.18675292, 0.13668462, 0.12304316, 0.16334691, 0.13219269,
       0.13120325, 0.15750845, 0.29747583, 0.10271689, 0.15757487,
       0.13983916, 0.11611614, 0.11323381, 0.18557387, 0.19411662,
       0.24242057, 0.17480325, 0.16132382, 0.2209919 , 0.        ,
       0.20017438, 0.11847868, 0.20580003, 0.16739789, 0.14868986,
       0.15809083, 0.10698297, 0.14120479, 0.13420514, 0.14220892,
       0.25913961, 0.22649572, 0.1406258 , 0.20297159, 0.13378173,
       0.13011514, 0.17132346, 0.13656019, 0.15411185, 0.19705357,
       0.14110764, 0.13602037, 0.16377612, 0.15352628, 0.1902465 ,
       0.09994153, 0.10781747, 0.15326902, 0.22911474, 0.11657375,
       0.10200462, 0.21351755, 0.16013665, 0.10997027, 0.15220858,
       0.13960769, 0.21282613, 0.18284424, 0.15395358, 0.18426407,
       0.26210775, 0.17215902, 0.14294594, 0.10756776, 0.10343362,
       0.14727032, 0.15600368, 0.15373066, 0.17611444, 0.12239262,
       0.1703044 , 0.1260886 , 0.16104725, 0.09818585, 0.13390372,
       0.10273319, 0.23678387, 0.09398386, 0.16021696, 0.16944825,
       0.19269715, 0.26636417, 0.12159419, 0.16746993, 0.13780286,
       0.16225063, 0.16032169, 0.12473674, 0.18826384, 0.17738638,
       0.14756422, 0.23733245, 0.12643467, 0.10698941, 0.19289919]), 'delta_distances': array([0., 0., 0., 0., 0., 0., 0., 0., 0., 0., 0., 0., 0., 0., 0., 0., 0.,
       0., 0., 0., 0., 0., 0., 0., 0., 0., 0., 0., 0., 0., 0., 0., 0., 0.,
       0., 0., 0., 0., 0., 0., 0., 0., 0., 0., 0., 0., 0., 0., 0., 0., 0.,
       0., 0., 0., 0., 0., 0., 0., 0., 0., 0., 0., 0., 0., 0., 0., 0., 0.,
       0., 0., 0., 0., 0., 0., 0., 0., 0., 0., 0., 0., 0., 0., 0., 0., 0.,
       0., 0., 0., 0., 0., 0., 0., 0., 0., 0., 0., 0., 0., 0., 0., 0., 0.,
       0., 0., 0., 0., 0., 0., 0., 0., 0., 0., 0., 0., 0., 0., 0., 0., 0.,
       0., 0., 0., 0., 0., 0., 0., 0., 0., 0., 0., 0., 0., 0., 0., 0., 0.,
       0., 0., 0., 0., 0., 0., 0., 0., 0., 0., 0., 0., 0., 0., 0., 0., 0.,
       0., 0., 0., 0., 0., 0., 0., 0., 0., 0., 0., 0., 0., 0., 0., 0., 0.,
       0., 0., 0., 0., 0., 0., 0., 0., 0., 0., 0., 0., 0., 0., 0., 0., 0.,
       0., 0., 0., 0., 0., 0., 0., 0., 0., 0., 0., 0., 0.]), 'locations': array([ 2,  2,  5,  1, 10,  2,  1,  1,  1,  8,  1, 56, 62,  5, 10,  3,  1,
        1,  0,  0, 31,  2,  2,  2,  0,  1,  5,  2,  2,  3,  2,  2,  8,  2,
        0,  4,  2,  1, 26,  5,  2,  1,  1,  1,  4,  2,  3,  0,  2,  0,  3,
       40,  8,  6,  0,  5,  3,  5,  0,  8, 20,  2,  2,  2,  9,  2,  3,  1,
        3,  0,  3,  2,  1,  1,  1,  4,  1,  4,  3,  2,  4,  3,  0,  3,  6,
        3,  5,  7,  3,  2,  1, 38,  8,  3,  3,  2,  1,  8, 64,  2,  2,  0,
        6,  3,  2,  3,  5,  4,  2,  1,  4,  4, 56,  2,  9,  2,  3,  3,  2,
        1,  0,  2,  3,  1,  2,  0,  1,  6,  0,  3,  2,  3,  1,  3,  2,  0,
        2,  1,  2,  2,  6,  3,  1,  5,  0,  3,  1,  9,  2,  1,  1,  2,  2,
        4,  3,  3,  0,  8,  2,  2,  4,  1,  3,  2,  2,  0,  3,  2,  2,  2,
        4,  2,  5,  1,  1,  2,  3,  3,  3,  3,  1,  0,  3,  0,  3,  6, 49,
        2,  2,  0,  8,  0,  4,  0,  4,  4,  0,  3,  2,  2])}, {'ts_index': 120, 'loc': 3, 'gap': 0.06024624219780042, 'distances': array([0.18515784, 0.11632224, 0.18574076, 0.12809945, 0.11709703,
       0.16889106, 0.26771519, 0.17170313, 0.13763868, 0.18135487,
       0.14986296, 0.28211569, 0.10397624, 0.1725817 , 0.25033838,
       0.13729523, 0.08449948, 0.25937815, 0.12920887, 0.12664414,
       0.2756415 , 0.22180956, 0.14333601, 0.12146476, 0.        ,
       0.21014761, 0.17684109, 0.13588024, 0.11141447, 0.1704063 ,
       0.1125568 , 0.13942626, 0.23653254, 0.17911585]), 'delta_distances': array([0., 0., 0., 0., 0., 0., 0., 0., 0., 0., 0., 0., 0., 0., 0., 0., 0.,
       0., 0., 0., 0., 0., 0., 0., 0., 0., 0., 0., 0., 0., 0., 0., 0., 0.]), 'locations': array([ 4,  1,  7, 20, 35,  2, 42,  1,  0,  5,  0, 48,  6,  2, 58,  0,  1,
       35,  6,  0, 41,  3,  3,  0,  3,  3,  2,  4,  6,  3,  0,  1,  0,  3])}], 'clusters': array([1, 1, 1, 1, 1, 1, 1, 1, 1, 1, 2, 2, 2, 2, 2, 1, 1, 1, 2, 1, 0, 1,
       1, 1, 2, 2, 1, 1, 2, 1, 1, 1, 1, 1, 2, 1, 1, 1, 0, 1, 1, 2, 1, 1,
       1, 1, 1, 1, 1, 2, 1, 0, 1, 1, 2, 1, 1, 1, 2, 1, 0, 2, 1, 1, 1, 1,
       1, 1, 1, 1, 1, 1, 1, 1, 1, 1, 1, 1, 1, 1, 1, 1, 2, 1, 1, 1, 1, 1,
       1, 1, 1, 0, 1, 1, 1, 1, 1, 1, 2, 1, 1, 2, 1, 1, 1, 1, 1, 1, 1, 1,
       1, 1, 2, 1, 1, 1, 1, 1, 1, 1, 2, 1, 1, 2, 1, 1, 1, 1, 1, 1, 1, 1,
       1, 1, 1, 2, 2, 1, 1, 1, 1, 1, 1, 1, 1, 1, 1, 1, 1, 1, 1, 1, 1, 2,
       1, 1, 2, 1, 1, 1, 1, 1, 1, 1, 1, 2, 1, 1, 1, 1, 1, 1, 1, 1, 1, 1,
       1, 1, 1, 1, 1, 2, 1, 1, 1, 1, 0, 1, 1, 1, 1, 1, 1, 1, 1, 1, 2, 1,
       1, 1]), 'time': 20.746307611465454}
lenSubsequence: 33{'RI': 0.5891959798994975, 'num_clusters': 3, 'uShapelets': [{'ts_index': 110, 'loc': 8, 'gap': 0.04508174700053938, 'distances': array([0.14055905, 0.16337947, 0.15087594, 0.14222957, 0.17958046,
       0.15837213, 0.15858333, 0.1401021 , 0.18587758, 0.15831531,
       0.25663112, 0.23007996, 0.26007883, 0.14670075, 0.17153661,
       0.11829047, 0.1367469 , 0.16388964, 0.25524607, 0.22957446,
       0.2906054 , 0.20624337, 0.15580322, 0.14285716, 0.24943223,
       0.21040234, 0.15931556, 0.15387296, 0.23988132, 0.16201461,
       0.17392222, 0.21786559, 0.13524743, 0.24849084, 0.207722  ,
       0.14261823, 0.17749839, 0.13835903, 0.28726602, 0.14784758,
       0.12580541, 0.17561593, 0.20377936, 0.13390471, 0.17807221,
       0.17530215, 0.17503618, 0.16018251, 0.12203056, 0.24174879,
       0.15906587, 0.26114022, 0.12919429, 0.16412803, 0.26899898,
       0.18104689, 0.16378766, 0.12208353, 0.16917481, 0.12495812,
       0.26760169, 0.21546093, 0.17233619, 0.14086671, 0.16456038,
       0.15603958, 0.14388991, 0.16077294, 0.17006729, 0.17395213,
       0.1492593 , 0.18816094, 0.1883715 , 0.23888699, 0.16765008,
       0.23570031, 0.13500968, 0.1224481 , 0.14753741, 0.18266672,
       0.16813681, 0.19791192, 0.22944175, 0.1427728 , 0.14322998,
       0.17281533, 0.20181496, 0.14601031, 0.11710868, 0.17906368,
       0.20025323, 0.28981373, 0.15702661, 0.15984272, 0.14682069,
       0.18340576, 0.16891954, 0.13314903, 0.27362604, 0.16597264,
       0.13673324, 0.18006392, 0.12418288, 0.14675883, 0.17513901,
       0.18379347, 0.13926371, 0.1480672 , 0.15571108, 0.19868777,
       0.        , 0.13570014, 0.2371947 , 0.15299683, 0.11287939,
       0.18829857, 0.15522448, 0.11949164, 0.19810084, 0.16848905,
       0.13460374, 0.15403485, 0.14202781, 0.26864013, 0.14853202,
       0.1824874 , 0.16552221, 0.1520139 , 0.1270508 , 0.18234422,
       0.148922  , 0.13558348, 0.1559925 , 0.13558248, 0.15103065,
       0.25689653, 0.20917799, 0.15233   , 0.1432398 , 0.14287324,
       0.13357991, 0.1292528 , 0.14182632, 0.11516501, 0.19592048,
       0.168301  , 0.24586184, 0.12150054, 0.15622798, 0.22272265,
       0.14804075, 0.13793887, 0.17433458, 0.15233043, 0.14976918,
       0.13624352, 0.24253224, 0.12568567, 0.13890816, 0.16024461,
       0.16457469, 0.27310678, 0.17685014, 0.1626077 , 0.13874045,
       0.22065581, 0.18117091, 0.18110743, 0.12910673, 0.13936915,
       0.1359296 , 0.17711733, 0.11988328, 0.1731291 , 0.1245232 ,
       0.16938876, 0.1248297 , 0.17878659, 0.16145956, 0.14266937,
       0.14298439, 0.22142491, 0.15405747, 0.18922712, 0.15524234,
       0.17098008, 0.25871548, 0.16714593, 0.20140491, 0.17396096,
       0.12542426, 0.14856265, 0.15465907, 0.10675214, 0.14350157,
       0.12537423, 0.24941743, 0.13979805, 0.13149407, 0.18336796]), 'delta_distances': array([0., 0., 0., 0., 0., 0., 0., 0., 0., 0., 0., 0., 0., 0., 0., 0., 0.,
       0., 0., 0., 0., 0., 0., 0., 0., 0., 0., 0., 0., 0., 0., 0., 0., 0.,
       0., 0., 0., 0., 0., 0., 0., 0., 0., 0., 0., 0., 0., 0., 0., 0., 0.,
       0., 0., 0., 0., 0., 0., 0., 0., 0., 0., 0., 0., 0., 0., 0., 0., 0.,
       0., 0., 0., 0., 0., 0., 0., 0., 0., 0., 0., 0., 0., 0., 0., 0., 0.,
       0., 0., 0., 0., 0., 0., 0., 0., 0., 0., 0., 0., 0., 0., 0., 0., 0.,
       0., 0., 0., 0., 0., 0., 0., 0., 0., 0., 0., 0., 0., 0., 0., 0., 0.,
       0., 0., 0., 0., 0., 0., 0., 0., 0., 0., 0., 0., 0., 0., 0., 0., 0.,
       0., 0., 0., 0., 0., 0., 0., 0., 0., 0., 0., 0., 0., 0., 0., 0., 0.,
       0., 0., 0., 0., 0., 0., 0., 0., 0., 0., 0., 0., 0., 0., 0., 0., 0.,
       0., 0., 0., 0., 0., 0., 0., 0., 0., 0., 0., 0., 0., 0., 0., 0., 0.,
       0., 0., 0., 0., 0., 0., 0., 0., 0., 0., 0., 0., 0.]), 'locations': array([ 5,  4, 12,  4,  8,  4,  6,  4,  2, 11,  0,  0,  1, 13, 29,  8,  4,
        5,  0,  0, 32,  4,  0,  4,  0,  0,  8,  4, 55,  4,  5,  0, 16,  0,
        0, 10,  3,  4, 61, 11,  5,  1,  0,  3,  6,  4,  5,  8,  5,  0,  5,
       57, 10,  9,  0,  6,  6, 10,  0, 13, 18,  5,  4,  7, 16, 10,  5,  3,
        5,  5,  5,  6,  4,  4,  6,  6,  4,  7,  3,  5,  5,  0,  0,  5, 17,
        8,  7,  9,  5,  4,  3, 41, 12,  5, 10,  5,  4, 12, 61,  7, 10,  0,
        9,  6,  4,  6, 12,  7,  4,  4,  8,  9,  0,  5, 14,  4,  6,  5,  6,
       10,  0,  4,  6, 60,  4,  0,  4, 16,  0,  5,  4,  5,  4,  5,  4,  0,
        0,  4,  6,  5,  9, 14,  2, 13,  0,  6,  3, 11,  4,  0,  4,  7,  4,
        3,  5,  5,  0, 15,  4,  5,  6, 61, 14,  4,  0,  0,  0,  0,  4,  5,
        8,  4,  9,  4,  4,  5,  5,  5,  5,  7,  2,  0,  6,  1, 11,  9, 54,
        5,  0,  2, 12,  3,  6,  4,  6, 13,  0,  5,  5,  6])}, {'ts_index': 49, 'loc': 2, 'gap': 0.04530034277911052, 'distances': array([0.12375549, 0.18304956, 0.22061825, 0.1527085 , 0.12210214,
       0.24459642, 0.13706129, 0.13756523, 0.14270489, 0.16099387,
       0.15789928, 0.25186709, 0.        , 0.22126222, 0.13012346,
       0.22467945, 0.17615281, 0.16886204, 0.14528797, 0.15624306,
       0.25681922, 0.18336535, 0.16667399, 0.16246302, 0.1505867 ,
       0.14593691, 0.14861654, 0.13432512, 0.12109999, 0.12488307,
       0.14483569, 0.13108895, 0.17302207, 0.13668307]), 'delta_distances': array([0., 0., 0., 0., 0., 0., 0., 0., 0., 0., 0., 0., 0., 0., 0., 0., 0.,
       0., 0., 0., 0., 0., 0., 0., 0., 0., 0., 0., 0., 0., 0., 0., 0., 0.]), 'locations': array([ 3,  4, 10,  3,  4, 37,  0,  2,  5,  8,  6, 32,  2,  0,  0, 25, 10,
       11, 12,  1, 45,  2,  0,  3,  2,  2,  5,  4,  3,  3,  1,  0,  2,  1])}], 'clusters': array([1, 1, 1, 1, 1, 1, 1, 1, 1, 1, 2, 2, 0, 1, 1, 1, 1, 1, 2, 2, 0, 1,
       1, 1, 2, 2, 1, 1, 2, 1, 1, 2, 1, 2, 1, 1, 1, 1, 0, 1, 1, 1, 1, 1,
       1, 1, 1, 1, 1, 2, 1, 0, 1, 1, 2, 1, 1, 1, 1, 1, 0, 2, 1, 1, 1, 1,
       1, 1, 1, 1, 1, 1, 1, 2, 1, 2, 1, 1, 1, 1, 1, 1, 2, 1, 1, 1, 1, 1,
       1, 1, 1, 0, 1, 1, 1, 1, 1, 1, 2, 1, 1, 1, 1, 1, 1, 1, 1, 1, 1, 1,
       1, 1, 2, 1, 1, 1, 1, 1, 1, 1, 1, 1, 1, 2, 1, 1, 1, 1, 1, 1, 1, 1,
       1, 1, 1, 2, 2, 1, 1, 1, 1, 1, 1, 1, 1, 1, 2, 1, 1, 2, 1, 1, 1, 1,
       1, 1, 2, 1, 1, 1, 1, 2, 1, 1, 1, 2, 1, 1, 1, 1, 1, 1, 1, 1, 1, 1,
       1, 1, 1, 1, 1, 2, 1, 1, 1, 1, 2, 1, 1, 1, 1, 1, 1, 1, 1, 1, 2, 1,
       1, 1]), 'time': 19.913706064224243}
