lenSubsequence: 20{'RI': 0.5662814070351759, 'num_clusters': 2, 'uShapelets': [{'ts_index': 163, 'loc': 14, 'gap': 0.046582022608342044, 'distances': array([0.29872771, 0.30893021, 0.29947942, 0.25019275, 0.33698096,
       0.22025562, 0.2646636 , 0.21976904, 0.27010988, 0.25429514,
       0.21635889, 0.22771047, 0.25583711, 0.33451098, 0.26030886,
       0.25392702, 0.19613922, 0.24729329, 0.27067518, 0.20859373,
       0.40252696, 0.31193438, 0.21506424, 0.23850284, 0.20590151,
       0.28445031, 0.3024849 , 0.26179664, 0.26942633, 0.29052411,
       0.27510466, 0.24619345, 0.36988406, 0.34201674, 0.40763387,
       0.26935759, 0.29321024, 0.18318483, 0.41525264, 0.40694347,
       0.26972305, 0.22328276, 0.24600514, 0.17329876, 0.25282255,
       0.14600834, 0.34022534, 0.24017552, 0.19895832, 0.21400664,
       0.33832294, 0.25916843, 0.21787014, 0.36967322, 0.24268447,
       0.24612462, 0.36170298, 0.28050656, 0.14934716, 0.28232922,
       0.38573963, 0.35298551, 0.22609792, 0.22918939, 0.21255567,
       0.26208281, 0.21227043, 0.1941258 , 0.29116237, 0.23911902,
       0.24003686, 0.32852769, 0.19016155, 0.21166304, 0.18456729,
       0.15048612, 0.28211416, 0.19513688, 0.22169948, 0.24679656,
       0.29461171, 0.24405219, 0.30816436, 0.24273364, 0.33952741,
       0.32543729, 0.34393627, 0.3173013 , 0.21033972, 0.22723384,
       0.23563964, 0.41057612, 0.30380798, 0.29276903, 0.22795881,
       0.31861122, 0.26670321, 0.31423548, 0.35600263, 0.37700962,
       0.22013434, 0.20954769, 0.16865833, 0.23736279, 0.20490232,
       0.20230247, 0.25140612, 0.23132695, 0.2025883 , 0.20261403,
       0.23542201, 0.22458148, 0.26779867, 0.2472223 , 0.20957861,
       0.32027101, 0.18878169, 0.18943089, 0.21015523, 0.29481904,
       0.18570822, 0.23802432, 0.25488918, 0.25598948, 0.176579  ,
       0.1796985 , 0.13619364, 0.27511219, 0.18621004, 0.18520354,
       0.14483572, 0.19117636, 0.22596654, 0.14515902, 0.21505781,
       0.17634371, 0.15463634, 0.18515895, 0.27189747, 0.191672  ,
       0.22933581, 0.25406485, 0.13453708, 0.22034297, 0.22129089,
       0.22796972, 0.24896866, 0.22969118, 0.23973117, 0.19805746,
       0.20679261, 0.2563933 , 0.16941676, 0.18444782, 0.17589083,
       0.22664692, 0.18249001, 0.24894081, 0.17072437, 0.25293989,
       0.28229997, 0.13397409, 0.28095478, 0.        , 0.24201753,
       0.21597911, 0.1846976 , 0.21227066, 0.16672965, 0.20869166,
       0.1892    , 0.22873403, 0.20533336, 0.30478345, 0.18581249,
       0.2597187 , 0.21035548, 0.20893811, 0.16955487, 0.22802841,
       0.14555052, 0.26304489, 0.17916595, 0.18370039, 0.27015406,
       0.33134853, 0.2780667 , 0.18081013, 0.19870326, 0.23184927,
       0.3116742 , 0.22014097, 0.23276857, 0.15341909, 0.18687832,
       0.22869868, 0.18022096, 0.19233793, 0.13962405, 0.17446226]), 'delta_distances': array([0., 0., 0., 0., 0., 0., 0., 0., 0., 0., 0., 0., 0., 0., 0., 0., 0.,
       0., 0., 0., 0., 0., 0., 0., 0., 0., 0., 0., 0., 0., 0., 0., 0., 0.,
       0., 0., 0., 0., 0., 0., 0., 0., 0., 0., 0., 0., 0., 0., 0., 0., 0.,
       0., 0., 0., 0., 0., 0., 0., 0., 0., 0., 0., 0., 0., 0., 0., 0., 0.,
       0., 0., 0., 0., 0., 0., 0., 0., 0., 0., 0., 0., 0., 0., 0., 0., 0.,
       0., 0., 0., 0., 0., 0., 0., 0., 0., 0., 0., 0., 0., 0., 0., 0., 0.,
       0., 0., 0., 0., 0., 0., 0., 0., 0., 0., 0., 0., 0., 0., 0., 0., 0.,
       0., 0., 0., 0., 0., 0., 0., 0., 0., 0., 0., 0., 0., 0., 0., 0., 0.,
       0., 0., 0., 0., 0., 0., 0., 0., 0., 0., 0., 0., 0., 0., 0., 0., 0.,
       0., 0., 0., 0., 0., 0., 0., 0., 0., 0., 0., 0., 0., 0., 0., 0., 0.,
       0., 0., 0., 0., 0., 0., 0., 0., 0., 0., 0., 0., 0., 0., 0., 0., 0.,
       0., 0., 0., 0., 0., 0., 0., 0., 0., 0., 0., 0., 0.]), 'locations': array([17, 11, 28, 10, 21, 16, 20, 15, 12, 30,  9,  7,  7, 13, 49, 10, 14,
       13,  6,  7, 45, 11, 14, 16,  6,  9, 25, 17,  8, 15, 13, 11, 11, 13,
       14, 17, 11, 15, 40, 33, 11, 16,  8, 12, 15, 15, 12, 10, 13,  7, 16,
        4, 21, 37,  7, 16, 23, 25,  8, 29, 31, 12, 13, 19, 39, 12, 14, 12,
       75, 14, 12, 16, 10, 12, 10, 14, 16, 12,  9, 14,  8, 12,  6, 16, 10,
       15,  7, 18, 17, 11, 11, 51, 26, 75, 18, 11, 11, 19,  7, 26, 16, 12,
       23, 17, 15, 15, 19, 17, 18, 12, 16, 13,  5, 11, 26, 16, 13, 13,  9,
       12, 14,  9,  9, 10, 16, 12, 14, 20, 12, 15, 16, 12, 17, 16, 16,  8,
        7, 16, 11, 17, 21, 31, 12, 26,  8, 12,  8, 24, 11,  9, 15, 21, 14,
       17, 15, 13,  7, 29, 13, 13, 18, 10, 16, 14,  9,  7, 15, 10, 18, 12,
       16, 13, 21, 12, 16,  8, 10, 15, 17,  9, 14,  5, 17, 11, 14, 10,  7,
       14, 13, 12, 24, 17, 12, 16, 19, 27,  7, 18, 15, 13])}], 'clusters': array([1, 0, 0, 1, 0, 1, 1, 1, 1, 1, 1, 1, 1, 0, 1, 1, 1, 1, 1, 1, 0, 0,
       1, 1, 1, 1, 0, 1, 1, 1, 1, 1, 0, 0, 0, 1, 1, 1, 0, 0, 1, 1, 1, 1,
       1, 1, 0, 1, 1, 1, 0, 1, 1, 0, 1, 1, 0, 1, 1, 1, 0, 0, 1, 1, 1, 1,
       1, 1, 1, 1, 1, 0, 1, 1, 1, 1, 1, 1, 1, 1, 1, 1, 0, 1, 0, 0, 0, 0,
       1, 1, 1, 0, 0, 1, 1, 0, 1, 0, 0, 0, 1, 1, 1, 1, 1, 1, 1, 1, 1, 1,
       1, 1, 1, 1, 1, 0, 1, 1, 1, 1, 1, 1, 1, 1, 1, 1, 1, 1, 1, 1, 1, 1,
       1, 1, 1, 1, 1, 1, 1, 1, 1, 1, 1, 1, 1, 1, 1, 1, 1, 1, 1, 1, 1, 1,
       1, 1, 1, 1, 1, 1, 1, 1, 1, 1, 1, 1, 1, 1, 1, 1, 1, 1, 1, 0, 1, 1,
       1, 1, 1, 1, 1, 1, 1, 1, 1, 0, 1, 1, 1, 1, 0, 1, 1, 1, 1, 1, 1, 1,
       1, 1]), 'time': 27.21610140800476}
lenSubsequence: 22{'RI': 0.5397487437185929, 'num_clusters': 2, 'uShapelets': [{'ts_index': 156, 'loc': 13, 'gap': 0.033348689804476195, 'distances': array([0.29552748, 0.27605375, 0.27606729, 0.31689016, 0.33593187,
       0.2407466 , 0.29348995, 0.25348719, 0.24763346, 0.23581935,
       0.2616875 , 0.23220117, 0.35988822, 0.3208966 , 0.25992288,
       0.35374929, 0.23675525, 0.29143589, 0.26465112, 0.24518829,
       0.33796299, 0.34876416, 0.3131594 , 0.2920337 , 0.26508114,
       0.2669538 , 0.22750308, 0.36093712, 0.29278342, 0.33085368,
       0.33482734, 0.31731094, 0.29070228, 0.3148961 , 0.32901305,
       0.36541809, 0.29048815, 0.26730454, 0.34458681, 0.25924679,
       0.30325934, 0.25415374, 0.29175744, 0.27026861, 0.28801664,
       0.23583433, 0.35042391, 0.30711365, 0.22155714, 0.2551115 ,
       0.32780797, 0.25856635, 0.27946083, 0.27073681, 0.2306093 ,
       0.21674772, 0.28270888, 0.33448179, 0.20115566, 0.2566369 ,
       0.33536284, 0.34204178, 0.24143724, 0.28021338, 0.22439075,
       0.25564074, 0.31496215, 0.21035157, 0.29893748, 0.26167112,
       0.36512901, 0.41723593, 0.26895368, 0.34285585, 0.29241292,
       0.27444755, 0.23496287, 0.29495374, 0.20498738, 0.30758826,
       0.40714236, 0.41221526, 0.35997036, 0.2861358 , 0.28837708,
       0.39326788, 0.37929102, 0.30474915, 0.17631955, 0.30797416,
       0.23645022, 0.37945852, 0.29068354, 0.29038702, 0.31959189,
       0.37446816, 0.35455197, 0.28012362, 0.38444089, 0.26912837,
       0.34933611, 0.23243229, 0.20411496, 0.34184207, 0.29072748,
       0.24033396, 0.3022986 , 0.35141122, 0.24162306, 0.28154592,
       0.31293335, 0.26345986, 0.25429298, 0.35201474, 0.27254066,
       0.39221624, 0.37210059, 0.29553346, 0.28988365, 0.33042045,
       0.23569222, 0.31723148, 0.30267434, 0.31664235, 0.33342979,
       0.20610566, 0.30402763, 0.28732758, 0.3534552 , 0.22756072,
       0.15728636, 0.24732517, 0.28965211, 0.23219726, 0.21153638,
       0.23941467, 0.28483386, 0.24505858, 0.22295143, 0.21270543,
       0.28798903, 0.26627783, 0.20918741, 0.26421158, 0.29723207,
       0.27651893, 0.24437455, 0.26256185, 0.30601205, 0.24148057,
       0.25160535, 0.26831682, 0.26983508, 0.29899692, 0.28023859,
       0.25970624, 0.        , 0.25811358, 0.24010751, 0.26267522,
       0.2713575 , 0.23703754, 0.22276771, 0.19646625, 0.33218697,
       0.20930151, 0.22200081, 0.21493089, 0.29323994, 0.36143579,
       0.24932548, 0.32879372, 0.27174089, 0.3094829 , 0.25019133,
       0.27402009, 0.29114146, 0.28714797, 0.24731946, 0.33391245,
       0.23680808, 0.24620779, 0.29806989, 0.31585312, 0.2564421 ,
       0.38160291, 0.27827907, 0.2492519 , 0.24736407, 0.25191326,
       0.25669237, 0.26731298, 0.25655147, 0.30068563, 0.31820757,
       0.20956275, 0.27921663, 0.24279629, 0.18169797, 0.28731894]), 'delta_distances': array([0., 0., 0., 0., 0., 0., 0., 0., 0., 0., 0., 0., 0., 0., 0., 0., 0.,
       0., 0., 0., 0., 0., 0., 0., 0., 0., 0., 0., 0., 0., 0., 0., 0., 0.,
       0., 0., 0., 0., 0., 0., 0., 0., 0., 0., 0., 0., 0., 0., 0., 0., 0.,
       0., 0., 0., 0., 0., 0., 0., 0., 0., 0., 0., 0., 0., 0., 0., 0., 0.,
       0., 0., 0., 0., 0., 0., 0., 0., 0., 0., 0., 0., 0., 0., 0., 0., 0.,
       0., 0., 0., 0., 0., 0., 0., 0., 0., 0., 0., 0., 0., 0., 0., 0., 0.,
       0., 0., 0., 0., 0., 0., 0., 0., 0., 0., 0., 0., 0., 0., 0., 0., 0.,
       0., 0., 0., 0., 0., 0., 0., 0., 0., 0., 0., 0., 0., 0., 0., 0., 0.,
       0., 0., 0., 0., 0., 0., 0., 0., 0., 0., 0., 0., 0., 0., 0., 0., 0.,
       0., 0., 0., 0., 0., 0., 0., 0., 0., 0., 0., 0., 0., 0., 0., 0., 0.,
       0., 0., 0., 0., 0., 0., 0., 0., 0., 0., 0., 0., 0., 0., 0., 0., 0.,
       0., 0., 0., 0., 0., 0., 0., 0., 0., 0., 0., 0., 0.]), 'locations': array([21, 20, 37, 19, 42, 17, 31, 20, 18, 37, 10, 15,  0, 10, 56, 14, 21,
       21, 14, 10, 50, 15, 13, 22, 14, 14, 35, 18, 13, 21, 18, 19, 38, 19,
       23, 14, 19, 20,  5, 34, 21, 23, 15, 23, 17, 17, 22, 35, 22,  9, 20,
        7, 24, 37, 13, 22, 24, 49, 16, 35, 35, 16, 19, 27, 45, 43, 19, 20,
       18, 22, 19, 15, 20, 18, 12, 17, 20, 24, 23, 25, 62, 11,  7, 21, 47,
       17,  8, 29, 25, 13, 16, 62, 37, 29, 19, 18, 26, 41, 13, 30, 44, 13,
       28, 25, 16, 19, 40, 23, 24, 15, 37, 26, 14, 23, 43, 21, 22, 21, 17,
       33, 17, 20, 19, 14, 15, 16, 14, 36, 12, 19, 20, 21, 22, 20, 24, 15,
        9, 19, 32, 24, 25, 37, 18, 35, 16, 13, 14, 38, 22, 19, 21, 25, 16,
        6, 19, 20, 13, 37, 20, 24, 22, 12, 37, 20, 20, 17, 24, 16, 20, 23,
       25, 16, 29, 17, 22, 17, 22, 16, 21, 27, 17, 13, 22, 13, 39, 15, 10,
       17, 16, 17, 42, 26, 20, 30, 27, 36, 11, 26, 22, 13])}], 'clusters': array([1, 1, 1, 1, 0, 1, 1, 1, 1, 1, 1, 1, 0, 1, 1, 0, 1, 1, 1, 1, 0, 0,
       1, 1, 1, 1, 1, 0, 1, 1, 0, 1, 1, 1, 1, 0, 1, 1, 0, 1, 1, 1, 1, 1,
       1, 1, 0, 1, 1, 1, 1, 1, 1, 1, 1, 1, 1, 0, 1, 1, 0, 0, 1, 1, 1, 1,
       1, 1, 1, 1, 0, 0, 1, 0, 1, 1, 1, 1, 1, 1, 0, 0, 0, 1, 1, 0, 0, 1,
       1, 1, 1, 0, 1, 1, 1, 0, 0, 1, 0, 1, 0, 1, 1, 0, 1, 1, 1, 0, 1, 1,
       1, 1, 1, 0, 1, 0, 0, 1, 1, 1, 1, 1, 1, 1, 1, 1, 1, 1, 0, 1, 1, 1,
       1, 1, 1, 1, 1, 1, 1, 1, 1, 1, 1, 1, 1, 1, 1, 1, 1, 1, 1, 1, 1, 1,
       1, 1, 1, 1, 1, 1, 1, 1, 1, 1, 1, 1, 1, 1, 1, 0, 1, 1, 1, 1, 1, 1,
       1, 1, 1, 1, 1, 1, 1, 1, 1, 0, 1, 1, 1, 1, 1, 1, 1, 1, 1, 1, 1, 1,
       1, 1]), 'time': 26.098530292510986}
lenSubsequence: 24{'RI': 0.5313065326633166, 'num_clusters': 3, 'uShapelets': [{'ts_index': 198, 'loc': 20, 'gap': 0.037098460392274546, 'distances': array([0.30634603, 0.24346566, 0.24089068, 0.2668843 , 0.29672366,
       0.20423543, 0.27946126, 0.21941237, 0.31174672, 0.20675867,
       0.25548075, 0.24462045, 0.3146662 , 0.28954459, 0.18865814,
       0.31254516, 0.18584971, 0.2331513 , 0.24746261, 0.18785031,
       0.29935799, 0.29098276, 0.26886666, 0.27283148, 0.23263562,
       0.23454302, 0.21308393, 0.32333163, 0.27019621, 0.25935401,
       0.33324099, 0.30208149, 0.28612995, 0.30718018, 0.27623543,
       0.26331582, 0.28522558, 0.21153992, 0.32229451, 0.30623898,
       0.31391751, 0.22704976, 0.2598677 , 0.23189008, 0.2380096 ,
       0.17919301, 0.34630113, 0.27568466, 0.18963807, 0.21268803,
       0.29194907, 0.20735178, 0.19910663, 0.2405873 , 0.18872729,
       0.21310682, 0.3372297 , 0.31334698, 0.18175266, 0.24415012,
       0.32063312, 0.34073157, 0.19165543, 0.25816428, 0.15189609,
       0.21521847, 0.25911787, 0.19589491, 0.25308157, 0.22272649,
       0.29715435, 0.3338631 , 0.22607607, 0.26993712, 0.25757055,
       0.21077844, 0.28026251, 0.24275718, 0.2294481 , 0.24260752,
       0.35347193, 0.33316708, 0.27199374, 0.25049172, 0.23945486,
       0.3403881 , 0.34919672, 0.29238459, 0.19711927, 0.20418357,
       0.23825677, 0.31328837, 0.22362664, 0.26414486, 0.28485011,
       0.32909032, 0.29379683, 0.23567987, 0.34532819, 0.2783399 ,
       0.2842079 , 0.17727121, 0.15193058, 0.24975095, 0.21078168,
       0.20301089, 0.26424043, 0.27015594, 0.19422741, 0.21143757,
       0.31731639, 0.22396511, 0.24568728, 0.31893358, 0.22217778,
       0.30849362, 0.30633628, 0.24231365, 0.23030363, 0.2759179 ,
       0.20298947, 0.30633542, 0.21917586, 0.26653773, 0.28840642,
       0.18207768, 0.21449217, 0.25529423, 0.30198233, 0.2164942 ,
       0.16012368, 0.19770896, 0.22462098, 0.18270688, 0.21146209,
       0.21853319, 0.19314909, 0.2096427 , 0.24195787, 0.15847207,
       0.25037645, 0.2321612 , 0.16279019, 0.24105616, 0.25980969,
       0.20448226, 0.24493833, 0.23838485, 0.2830207 , 0.20415176,
       0.16351027, 0.24095668, 0.19812776, 0.22402534, 0.21534392,
       0.24456699, 0.16899115, 0.21773437, 0.19340708, 0.25669757,
       0.23887936, 0.1785817 , 0.22030013, 0.13798375, 0.31199812,
       0.17238853, 0.18716731, 0.20615966, 0.22423092, 0.28539636,
       0.21434462, 0.28273219, 0.23950167, 0.24376565, 0.19109267,
       0.21932617, 0.25269181, 0.23870947, 0.20020934, 0.28344525,
       0.19078718, 0.2347858 , 0.23409356, 0.24287879, 0.24435563,
       0.33354707, 0.25315886, 0.23424528, 0.20356359, 0.18785162,
       0.22520844, 0.25703729, 0.21311243, 0.26746643, 0.28408818,
       0.2330279 , 0.22731352, 0.23340432, 0.        , 0.18658811]), 'delta_distances': array([0., 0., 0., 0., 0., 0., 0., 0., 0., 0., 0., 0., 0., 0., 0., 0., 0.,
       0., 0., 0., 0., 0., 0., 0., 0., 0., 0., 0., 0., 0., 0., 0., 0., 0.,
       0., 0., 0., 0., 0., 0., 0., 0., 0., 0., 0., 0., 0., 0., 0., 0., 0.,
       0., 0., 0., 0., 0., 0., 0., 0., 0., 0., 0., 0., 0., 0., 0., 0., 0.,
       0., 0., 0., 0., 0., 0., 0., 0., 0., 0., 0., 0., 0., 0., 0., 0., 0.,
       0., 0., 0., 0., 0., 0., 0., 0., 0., 0., 0., 0., 0., 0., 0., 0., 0.,
       0., 0., 0., 0., 0., 0., 0., 0., 0., 0., 0., 0., 0., 0., 0., 0., 0.,
       0., 0., 0., 0., 0., 0., 0., 0., 0., 0., 0., 0., 0., 0., 0., 0., 0.,
       0., 0., 0., 0., 0., 0., 0., 0., 0., 0., 0., 0., 0., 0., 0., 0., 0.,
       0., 0., 0., 0., 0., 0., 0., 0., 0., 0., 0., 0., 0., 0., 0., 0., 0.,
       0., 0., 0., 0., 0., 0., 0., 0., 0., 0., 0., 0., 0., 0., 0., 0., 0.,
       0., 0., 0., 0., 0., 0., 0., 0., 0., 0., 0., 0., 0.]), 'locations': array([18, 14, 37, 17, 42, 16, 27, 18, 16, 37,  8, 10, 10, 10, 54, 12, 17,
       20, 12,  9, 50, 11, 11, 20, 11, 14, 32, 18, 10, 15, 14,  8, 36, 13,
       21, 21, 17, 18, 48, 37, 20, 16, 11, 21, 15, 15, 22, 11, 17,  7, 14,
        5, 22, 37, 11, 18, 26, 49, 12, 33, 30, 19, 17, 19, 39, 35, 17, 18,
       18, 15, 16, 14, 13, 12, 10, 15, 20, 19, 18, 18, 65,  9,  6, 17, 47,
       20, 12, 37, 25, 11, 14, 51, 35, 22, 17, 16, 69, 44, 11, 30, 13, 12,
       26, 17, 15, 17, 32, 15, 18, 13,  7, 23, 10, 18, 37, 12,  9, 17, 12,
       36, 11, 15, 18,  7, 13, 15, 13, 18, 10, 16, 18, 16, 15, 19, 20, 12,
       15, 19, 32, 19, 21, 14, 18, 33, 10, 20, 10, 37, 15, 17, 19, 22, 14,
        6, 17, 16, 11, 36, 18, 18, 18, 10, 37, 18, 13, 13, 17, 12, 13, 16,
       24, 13, 22, 15, 16, 16, 15, 12, 15,  9, 14, 10, 15, 11, 39, 13, 10,
       15, 14, 15, 43, 17, 20, 14, 22, 32,  9, 20, 20, 16])}, {'ts_index': 15, 'loc': 15, 'gap': 0.02339989893385841, 'distances': array([0.33457257, 0.40046222, 0.3966398 , 0.        , 0.49464376,
       0.30017356, 0.33078551, 0.35470295, 0.42205906, 0.47547975,
       0.45879468, 0.35825045, 0.36480093, 0.43465366, 0.34017469,
       0.47696377, 0.42440022, 0.29043836, 0.38164788, 0.33782379,
       0.38963432, 0.41410328, 0.43246014, 0.49990283, 0.42032608,
       0.42344111, 0.3182024 , 0.2796643 , 0.38830445, 0.32118363,
       0.24593363, 0.3434586 , 0.29981798, 0.3644611 ]), 'delta_distances': array([0., 0., 0., 0., 0., 0., 0., 0., 0., 0., 0., 0., 0., 0., 0., 0., 0.,
       0., 0., 0., 0., 0., 0., 0., 0., 0., 0., 0., 0., 0., 0., 0., 0., 0.]), 'locations': array([10,  5,  6, 15, 51,  9,  9,  6,  7, 64, 19, 10,  9,  5, 17, 25,  6,
       11, 10,  9, 10, 12, 17, 46, 12,  7, 12, 10,  7,  9, 10,  9,  4,  9])}], 'clusters': array([2, 1, 1, 1, 1, 1, 1, 1, 2, 1, 1, 1, 2, 1, 1, 2, 1, 1, 1, 1, 0, 1,
       1, 1, 1, 1, 1, 2, 1, 1, 2, 2, 1, 2, 1, 1, 1, 1, 0, 0, 2, 1, 1, 1,
       1, 1, 2, 1, 1, 1, 1, 1, 1, 1, 1, 1, 0, 2, 1, 1, 0, 2, 1, 1, 1, 1,
       1, 1, 1, 1, 2, 2, 1, 1, 1, 1, 1, 1, 1, 1, 2, 2, 1, 1, 1, 2, 2, 1,
       1, 1, 1, 0, 1, 1, 1, 2, 1, 1, 2, 1, 1, 1, 1, 1, 1, 1, 1, 1, 1, 1,
       2, 1, 1, 2, 1, 2, 2, 1, 1, 1, 1, 2, 1, 1, 1, 1, 1, 1, 2, 1, 1, 1,
       1, 1, 1, 1, 1, 1, 1, 1, 1, 1, 1, 1, 1, 1, 1, 1, 1, 1, 1, 1, 1, 1,
       1, 1, 1, 1, 1, 1, 1, 1, 1, 1, 2, 1, 1, 1, 1, 1, 1, 1, 1, 1, 1, 1,
       1, 1, 1, 1, 1, 1, 1, 1, 1, 2, 1, 1, 1, 1, 1, 1, 1, 1, 1, 1, 1, 1,
       1, 1]), 'time': 25.054951429367065}
lenSubsequence: 29{'RI': 0.5590452261306532, 'num_clusters': 2, 'uShapelets': [{'ts_index': 163, 'loc': 11, 'gap': 0.0331022977944575, 'distances': array([0.2488017 , 0.23824458, 0.23187883, 0.25255723, 0.31583935,
       0.1744899 , 0.2458604 , 0.16742474, 0.2738251 , 0.23421135,
       0.27767749, 0.23871242, 0.2990339 , 0.30189143, 0.20661745,
       0.23185172, 0.19824462, 0.21202082, 0.24709446, 0.22378047,
       0.29754995, 0.25074527, 0.22001172, 0.20467176, 0.17725731,
       0.22587421, 0.23881639, 0.25638927, 0.2461301 , 0.30999072,
       0.29168291, 0.25832714, 0.30936804, 0.25682875, 0.34542873,
       0.24125084, 0.22589618, 0.16285219, 0.30852597, 0.32244167,
       0.23744609, 0.18583012, 0.2231817 , 0.19957631, 0.20223541,
       0.13631161, 0.2749268 , 0.26650062, 0.1789119 , 0.26101924,
       0.30625659, 0.25228019, 0.19383528, 0.29758779, 0.21244946,
       0.2151175 , 0.28061466, 0.25506383, 0.13661717, 0.25696733,
       0.30447433, 0.31704621, 0.1766439 , 0.20296438, 0.1931676 ,
       0.23551162, 0.17776057, 0.17478921, 0.26270916, 0.22270863,
       0.24849399, 0.33103817, 0.2163675 , 0.31715422, 0.24039084,
       0.23847875, 0.22437692, 0.21498352, 0.19689245, 0.26517277,
       0.3187496 , 0.40902965, 0.28075327, 0.2305989 , 0.26541234,
       0.2982589 , 0.32659913, 0.28365239, 0.17131515, 0.23507172,
       0.2202961 , 0.3147885 , 0.24204236, 0.26390745, 0.24982311,
       0.31295611, 0.27950577, 0.25691576, 0.31704371, 0.28263347,
       0.23597212, 0.16535773, 0.16877547, 0.24748529, 0.22345535,
       0.17179545, 0.23854864, 0.23662247, 0.18652375, 0.23126382,
       0.23674292, 0.1975322 , 0.22373431, 0.27168342, 0.1901317 ,
       0.28162335, 0.28604085, 0.21943701, 0.19055552, 0.33031373,
       0.19076306, 0.27685195, 0.21012715, 0.29628391, 0.28350498,
       0.15801576, 0.19500182, 0.21754258, 0.27223842, 0.20037114,
       0.17569869, 0.17910324, 0.19020938, 0.13569604, 0.16900762,
       0.20097067, 0.19100542, 0.17238662, 0.26733539, 0.15981   ,
       0.20374735, 0.20325596, 0.15691254, 0.20125353, 0.26446066,
       0.18682146, 0.22815244, 0.18359489, 0.25373738, 0.17584755,
       0.19565948, 0.21045708, 0.18133616, 0.21518786, 0.19021282,
       0.2042138 , 0.17422859, 0.19687791, 0.18296184, 0.2311891 ,
       0.22513042, 0.16087956, 0.28582962, 0.        , 0.26055153,
       0.19617311, 0.16627426, 0.19730577, 0.17760522, 0.28515609,
       0.1592716 , 0.30729724, 0.19303805, 0.24271359, 0.17534881,
       0.20933976, 0.22115966, 0.20752535, 0.19845533, 0.25656778,
       0.18424944, 0.2149938 , 0.2008372 , 0.22404705, 0.2640417 ,
       0.29863958, 0.2551235 , 0.2348662 , 0.17139923, 0.21270424,
       0.2566431 , 0.20332846, 0.19565378, 0.19555872, 0.21517538,
       0.17110595, 0.23112811, 0.20155879, 0.13139616, 0.15077283]), 'delta_distances': array([0., 0., 0., 0., 0., 0., 0., 0., 0., 0., 0., 0., 0., 0., 0., 0., 0.,
       0., 0., 0., 0., 0., 0., 0., 0., 0., 0., 0., 0., 0., 0., 0., 0., 0.,
       0., 0., 0., 0., 0., 0., 0., 0., 0., 0., 0., 0., 0., 0., 0., 0., 0.,
       0., 0., 0., 0., 0., 0., 0., 0., 0., 0., 0., 0., 0., 0., 0., 0., 0.,
       0., 0., 0., 0., 0., 0., 0., 0., 0., 0., 0., 0., 0., 0., 0., 0., 0.,
       0., 0., 0., 0., 0., 0., 0., 0., 0., 0., 0., 0., 0., 0., 0., 0., 0.,
       0., 0., 0., 0., 0., 0., 0., 0., 0., 0., 0., 0., 0., 0., 0., 0., 0.,
       0., 0., 0., 0., 0., 0., 0., 0., 0., 0., 0., 0., 0., 0., 0., 0., 0.,
       0., 0., 0., 0., 0., 0., 0., 0., 0., 0., 0., 0., 0., 0., 0., 0., 0.,
       0., 0., 0., 0., 0., 0., 0., 0., 0., 0., 0., 0., 0., 0., 0., 0., 0.,
       0., 0., 0., 0., 0., 0., 0., 0., 0., 0., 0., 0., 0., 0., 0., 0., 0.,
       0., 0., 0., 0., 0., 0., 0., 0., 0., 0., 0., 0., 0.]), 'locations': array([12,  8, 25, 10, 10, 10, 23, 11, 11, 30,  2,  6,  8,  9, 46,  7, 10,
       12,  3,  4, 43,  8,  6, 13,  3,  4, 24,  9,  4, 10, 11,  5, 25,  7,
       16, 14, 12, 12, 37, 36, 14, 10,  6,  9,  7, 12,  9, 11, 14,  7,  9,
        3, 16, 26,  5, 13, 12, 16,  5, 22, 28,  7, 11, 15, 35, 19, 11,  9,
       13, 15, 11, 14, 10, 65, 12, 12, 13, 16, 12, 15, 62, 58,  3,  9, 29,
        6, 16, 18, 14,  8,  9, 51, 23, 12, 12, 11, 66, 23, 59, 18,  9,  6,
       21, 10, 10, 12, 16, 10, 10, 10, 17, 15,  2, 11, 23, 12, 10, 10, 10,
       36,  9, 11, 10, 42,  8,  8,  9, 12,  5, 11, 13,  9, 11, 13, 13,  4,
        8, 10, 23, 14, 14, 28,  7, 23,  5, 13,  5, 21, 10,  6, 12, 16,  9,
        3, 12, 11,  4, 26, 11, 13, 12,  5, 26, 11,  8,  3, 12,  9, 12, 11,
       17,  5, 16, 10, 10,  9,  9,  9, 10,  3,  8,  4, 10,  5, 28, 11,  4,
       12,  6,  9, 21, 14, 13,  9, 10, 24,  4, 15, 12, 10])}], 'clusters': array([1, 1, 1, 1, 0, 1, 1, 1, 1, 1, 1, 1, 0, 0, 1, 1, 1, 1, 1, 1, 0, 1,
       1, 1, 1, 1, 1, 1, 1, 0, 0, 1, 0, 1, 0, 1, 1, 1, 0, 0, 1, 1, 1, 1,
       1, 1, 1, 1, 1, 1, 0, 1, 1, 0, 1, 1, 1, 1, 1, 1, 0, 0, 1, 1, 1, 1,
       1, 1, 1, 1, 1, 0, 1, 0, 1, 1, 1, 1, 1, 1, 0, 0, 1, 1, 1, 0, 0, 0,
       1, 1, 1, 0, 1, 1, 1, 0, 1, 1, 0, 0, 1, 1, 1, 1, 1, 1, 1, 1, 1, 1,
       1, 1, 1, 1, 1, 0, 0, 1, 1, 0, 1, 1, 1, 0, 0, 1, 1, 1, 1, 1, 1, 1,
       1, 1, 1, 1, 1, 1, 1, 1, 1, 1, 1, 1, 1, 1, 1, 1, 1, 1, 1, 1, 1, 1,
       1, 1, 1, 1, 1, 1, 1, 1, 0, 1, 1, 1, 1, 1, 1, 0, 1, 0, 1, 1, 1, 1,
       1, 1, 1, 1, 1, 1, 1, 1, 1, 0, 1, 1, 1, 1, 1, 1, 1, 1, 1, 1, 1, 1,
       1, 1]), 'time': 22.20446276664734}
lenSubsequence: 31{'RI': 0.5522110552763819, 'num_clusters': 2, 'uShapelets': [{'ts_index': 102, 'loc': 22, 'gap': 0.0291510294944764, 'distances': array([0.23578842, 0.24142412, 0.25467619, 0.26217226, 0.32681578,
       0.2144047 , 0.25720467, 0.22629942, 0.30290769, 0.20425875,
       0.31841177, 0.20486246, 0.27804175, 0.31133119, 0.22916753,
       0.27681165, 0.21091023, 0.221147  , 0.25998893, 0.23577294,
       0.31483277, 0.25141832, 0.2820347 , 0.23377406, 0.21159633,
       0.25836112, 0.24022145, 0.29689927, 0.25649091, 0.32985699,
       0.25835888, 0.28900661, 0.282317  , 0.31842247, 0.29900305,
       0.29924967, 0.25678956, 0.22304661, 0.31900536, 0.29971449,
       0.2639231 , 0.21819578, 0.31408485, 0.1903848 , 0.26940923,
       0.20593315, 0.30552485, 0.23233707, 0.21259139, 0.28745584,
       0.30947296, 0.27676354, 0.19877358, 0.28750999, 0.22501217,
       0.22345345, 0.3275888 , 0.27489636, 0.19240593, 0.26912486,
       0.29975585, 0.25848962, 0.17354518, 0.23566402, 0.19454941,
       0.2405328 , 0.28705617, 0.199852  , 0.27695446, 0.25610573,
       0.33224572, 0.3535942 , 0.24821651, 0.29914766, 0.26033305,
       0.22150452, 0.25612664, 0.21419098, 0.23092397, 0.21585334,
       0.33299441, 0.39545046, 0.32155029, 0.26114948, 0.26389543,
       0.33566686, 0.34544196, 0.25212153, 0.21975616, 0.24425473,
       0.27398593, 0.32228715, 0.24269801, 0.25108496, 0.27093876,
       0.33312415, 0.29049845, 0.28394553, 0.32073064, 0.32051581,
       0.30357888, 0.20867464, 0.        , 0.26568824, 0.28338124,
       0.23514935, 0.25449028, 0.25549579, 0.22766822, 0.24874371,
       0.26196681, 0.22651763, 0.24270089, 0.28065498, 0.21091343,
       0.31722328, 0.31928561, 0.26127566, 0.21879196, 0.30813055,
       0.23110383, 0.25655018, 0.25010377, 0.2871767 , 0.24717027,
       0.21443323, 0.30784569, 0.24667465, 0.31486041, 0.25608685,
       0.20801426, 0.21625767, 0.25235468, 0.19783831, 0.23887066,
       0.20646545, 0.21655009, 0.21260547, 0.26223493, 0.21056826,
       0.21725289, 0.22542458, 0.16901377, 0.2400149 , 0.27539181,
       0.22332337, 0.30263382, 0.21362894, 0.263898  , 0.20608227,
       0.23484969, 0.25721752, 0.32153177, 0.24945066, 0.24789634,
       0.28919631, 0.19472636, 0.20506691, 0.22283105, 0.23264789,
       0.24474987, 0.22700869, 0.27454495, 0.22501047, 0.27463942,
       0.21824342, 0.20066885, 0.24183545, 0.26018856, 0.2814551 ,
       0.19528284, 0.28618383, 0.23512716, 0.23111775, 0.23003448,
       0.23739016, 0.23863558, 0.2472468 , 0.2344233 , 0.26778942,
       0.22895225, 0.22332388, 0.21690218, 0.2409323 , 0.25854764,
       0.29119743, 0.23264299, 0.24277448, 0.21702174, 0.22336334,
       0.24369436, 0.24572666, 0.24302769, 0.24940725, 0.2686633 ,
       0.22541727, 0.22361402, 0.20404132, 0.15923884, 0.22665966]), 'delta_distances': array([0., 0., 0., 0., 0., 0., 0., 0., 0., 0., 0., 0., 0., 0., 0., 0., 0.,
       0., 0., 0., 0., 0., 0., 0., 0., 0., 0., 0., 0., 0., 0., 0., 0., 0.,
       0., 0., 0., 0., 0., 0., 0., 0., 0., 0., 0., 0., 0., 0., 0., 0., 0.,
       0., 0., 0., 0., 0., 0., 0., 0., 0., 0., 0., 0., 0., 0., 0., 0., 0.,
       0., 0., 0., 0., 0., 0., 0., 0., 0., 0., 0., 0., 0., 0., 0., 0., 0.,
       0., 0., 0., 0., 0., 0., 0., 0., 0., 0., 0., 0., 0., 0., 0., 0., 0.,
       0., 0., 0., 0., 0., 0., 0., 0., 0., 0., 0., 0., 0., 0., 0., 0., 0.,
       0., 0., 0., 0., 0., 0., 0., 0., 0., 0., 0., 0., 0., 0., 0., 0., 0.,
       0., 0., 0., 0., 0., 0., 0., 0., 0., 0., 0., 0., 0., 0., 0., 0., 0.,
       0., 0., 0., 0., 0., 0., 0., 0., 0., 0., 0., 0., 0., 0., 0., 0., 0.,
       0., 0., 0., 0., 0., 0., 0., 0., 0., 0., 0., 0., 0., 0., 0., 0., 0.,
       0., 0., 0., 0., 0., 0., 0., 0., 0., 0., 0., 0., 0.]), 'locations': array([14, 10, 27, 11, 42,  9, 22, 12, 16, 31,  4,  6,  6, 31, 45, 19, 15,
       15, 12,  5, 43, 10, 14, 13,  7,  6, 27, 11,  9, 18, 12,  8, 33, 11,
       19, 16, 13, 15, 36, 30, 13, 17,  5, 17,  8, 10,  9,  7, 17,  7, 10,
        5, 22, 24,  7, 14, 13, 24,  7, 29, 29, 10, 13, 15, 37, 31, 15, 14,
       12, 14, 63,  9,  9, 12, 14, 13, 15, 18, 14, 14, 12, 11,  1, 16, 27,
       10, 16, 23, 19, 15, 10, 51, 25, 20, 25, 11, 15, 31,  9, 19, 21,  7,
       22, 12,  8,  6, 26, 13, 11, 11, 19, 21,  4, 14, 34, 15, 13, 17,  8,
       34,  5, 13, 14, 10, 14, 11, 11, 29, 10, 10, 14, 12, 15, 14, 18,  8,
        9, 15, 24, 13, 18, 28, 16, 22, 10, 14, 54, 28, 10,  8, 16, 16,  8,
        1, 13,  9,  7, 26, 13, 15, 15,  7, 30, 11, 10,  9, 13, 10, 11, 12,
       15,  9, 17, 11, 12, 11, 14,  8, 15, 14, 11,  7, 16,  9, 29,  9,  6,
       11, 10, 13, 33, 13, 12, 20, 18, 27,  7, 15, 16,  8])}], 'clusters': array([1, 1, 1, 1, 0, 1, 1, 1, 0, 1, 0, 1, 1, 0, 1, 1, 1, 1, 1, 1, 0, 1,
       1, 1, 1, 1, 1, 1, 1, 0, 1, 1, 1, 0, 1, 0, 1, 1, 0, 0, 1, 1, 0, 1,
       1, 1, 0, 1, 1, 1, 0, 1, 1, 1, 1, 1, 0, 1, 1, 1, 0, 1, 1, 1, 1, 1,
       1, 1, 1, 1, 0, 0, 1, 1, 1, 1, 1, 1, 1, 1, 0, 0, 0, 1, 1, 0, 0, 1,
       1, 1, 1, 0, 1, 1, 1, 0, 1, 1, 0, 0, 0, 1, 1, 1, 1, 1, 1, 1, 1, 1,
       1, 1, 1, 1, 1, 0, 0, 1, 1, 0, 1, 1, 1, 1, 1, 1, 0, 1, 0, 1, 1, 1,
       1, 1, 1, 1, 1, 1, 1, 1, 1, 1, 1, 1, 1, 1, 0, 1, 1, 1, 1, 1, 0, 1,
       1, 1, 1, 1, 1, 1, 1, 1, 1, 1, 1, 1, 1, 1, 1, 1, 1, 1, 1, 1, 1, 1,
       1, 1, 1, 1, 1, 1, 1, 1, 1, 1, 1, 1, 1, 1, 1, 1, 1, 1, 1, 1, 1, 1,
       1, 1]), 'time': 21.152218341827393}
lenSubsequence: 33{'RI': 0.5092462311557789, 'num_clusters': 3, 'uShapelets': [{'ts_index': 32, 'loc': 40, 'gap': 0.027490017688478585, 'distances': array([0.24548727, 0.25582665, 0.18652794, 0.26479524, 0.23559579,
       0.28650042, 0.17757996, 0.23211485, 0.27026972, 0.18897825,
       0.31068821, 0.22840776, 0.28600362, 0.18787878, 0.23966516,
       0.22328338, 0.21582594, 0.26197963, 0.29624228, 0.24575773,
       0.25734492, 0.31074455, 0.29461449, 0.22516722, 0.211082  ,
       0.21575433, 0.19508538, 0.24484975, 0.22246156, 0.24157566,
       0.29319884, 0.274013  , 0.        , 0.28446951, 0.22816911,
       0.24969814, 0.23328249, 0.25056645, 0.25331085, 0.22101276,
       0.20007813, 0.19143174, 0.3106075 , 0.26470709, 0.29664778,
       0.31312401, 0.2951172 , 0.2321789 , 0.22196012, 0.25736151,
       0.28078507, 0.22097274, 0.24332232, 0.18052872, 0.20862693,
       0.20129833, 0.26160312, 0.24639774, 0.2838148 , 0.19361337,
       0.23436957, 0.2469686 , 0.18294986, 0.21578175, 0.19695254,
       0.19353672, 0.2066601 , 0.21812963, 0.26651421, 0.20277601,
       0.27182917, 0.2966612 , 0.21148218, 0.29214962, 0.26051357,
       0.2302092 , 0.20683561, 0.2681412 , 0.2267907 , 0.23187536,
       0.24839176, 0.27419657, 0.29610987, 0.22170312, 0.1847718 ,
       0.31284501, 0.23843273, 0.19278219, 0.16777803, 0.23815424,
       0.25411218, 0.27749869, 0.19116047, 0.22185799, 0.21812918,
       0.2877426 , 0.21977195, 0.22412856, 0.30236042, 0.19775966,
       0.23330654, 0.23076896, 0.18254258, 0.28351172, 0.28728181,
       0.2522049 , 0.18851461, 0.25768638, 0.26813992, 0.2653268 ,
       0.19095259, 0.20198691, 0.2542355 , 0.26076222, 0.18581918,
       0.31363878, 0.29804135, 0.25985044, 0.22216053, 0.16464793,
       0.22248418, 0.24127188, 0.28561163, 0.25533183, 0.28729487,
       0.24799148, 0.31480847, 0.21042975, 0.30767462, 0.28091205,
       0.20132639, 0.25199704, 0.2497828 , 0.2166057 , 0.21420252,
       0.2755785 , 0.27706511, 0.20023826, 0.15533066, 0.17996446,
       0.21196423, 0.17491649, 0.22377185, 0.17328663, 0.32040507,
       0.23275014, 0.28982731, 0.16785547, 0.25308592, 0.19551723,
       0.22671845, 0.24806207, 0.3079342 , 0.24769146, 0.22271551,
       0.29869665, 0.24952135, 0.15863916, 0.23174585, 0.23459845,
       0.26720319, 0.28662115, 0.18980672, 0.23749175, 0.27961991,
       0.21980806, 0.19393796, 0.23871854, 0.30813636, 0.25979193,
       0.17094435, 0.29872751, 0.19994505, 0.20506383, 0.21288534,
       0.29581929, 0.23359188, 0.31191881, 0.21760763, 0.26201737,
       0.25296777, 0.2962876 , 0.26946546, 0.25717025, 0.15725284,
       0.22122094, 0.21896923, 0.27051839, 0.21345945, 0.26229818,
       0.17640108, 0.20097065, 0.27468458, 0.18956029, 0.26704958,
       0.16024886, 0.26633716, 0.20968005, 0.2084919 , 0.31238414]), 'delta_distances': array([0., 0., 0., 0., 0., 0., 0., 0., 0., 0., 0., 0., 0., 0., 0., 0., 0.,
       0., 0., 0., 0., 0., 0., 0., 0., 0., 0., 0., 0., 0., 0., 0., 0., 0.,
       0., 0., 0., 0., 0., 0., 0., 0., 0., 0., 0., 0., 0., 0., 0., 0., 0.,
       0., 0., 0., 0., 0., 0., 0., 0., 0., 0., 0., 0., 0., 0., 0., 0., 0.,
       0., 0., 0., 0., 0., 0., 0., 0., 0., 0., 0., 0., 0., 0., 0., 0., 0.,
       0., 0., 0., 0., 0., 0., 0., 0., 0., 0., 0., 0., 0., 0., 0., 0., 0.,
       0., 0., 0., 0., 0., 0., 0., 0., 0., 0., 0., 0., 0., 0., 0., 0., 0.,
       0., 0., 0., 0., 0., 0., 0., 0., 0., 0., 0., 0., 0., 0., 0., 0., 0.,
       0., 0., 0., 0., 0., 0., 0., 0., 0., 0., 0., 0., 0., 0., 0., 0., 0.,
       0., 0., 0., 0., 0., 0., 0., 0., 0., 0., 0., 0., 0., 0., 0., 0., 0.,
       0., 0., 0., 0., 0., 0., 0., 0., 0., 0., 0., 0., 0., 0., 0., 0., 0.,
       0., 0., 0., 0., 0., 0., 0., 0., 0., 0., 0., 0., 0.]), 'locations': array([25, 15, 33, 30, 46, 51, 36, 25, 20, 39, 47, 17, 35, 43, 55, 32, 27,
       27, 16, 15, 50, 39, 31, 28, 18, 19, 30, 26, 20, 25, 25, 23, 40, 44,
       23, 41, 25, 25, 49, 33, 27, 25, 41, 27, 25, 59, 49, 36, 27, 17, 24,
       10, 33, 37, 15, 24, 25, 34, 18, 37, 40, 20, 20, 28, 40, 45, 26, 24,
       25, 22, 44, 34, 26, 52, 27, 24, 26, 31, 25, 31, 29, 36, 36, 27, 41,
       32, 33, 36, 29, 23, 24, 46, 42, 29, 41, 21, 32, 36, 55, 34, 40, 19,
       35, 50, 27, 27, 36, 26, 28, 22, 32, 31, 17, 25, 38, 25, 41, 29, 25,
       34, 22, 25, 28, 40, 46, 16, 49, 40, 47, 23, 25, 26, 26, 29, 28, 17,
       13, 24, 38, 29, 29, 38, 24, 38, 51, 22, 53, 32, 25, 21, 30, 31, 48,
       40, 30, 25, 15, 39, 26, 28, 25, 55, 41, 26, 21, 22, 23, 19, 46, 26,
       32, 22, 31, 28, 28, 26, 27, 61, 25, 38, 20, 17, 29, 31, 40, 39, 12,
       44, 21, 26, 42, 25, 22, 34, 35, 38, 17, 32, 27,  6])}, {'ts_index': 45, 'loc': 4, 'gap': 0.016307985547468762, 'distances': array([0.24326546, 0.3388917 , 0.42564135, 0.33712376, 0.32196498,
       0.29256813, 0.38663189, 0.31637373, 0.30786606, 0.        ,
       0.36354165, 0.36234656, 0.36245043, 0.3893804 , 0.31756749,
       0.37006862, 0.35554231, 0.2302764 , 0.3604124 , 0.26664056,
       0.3054537 , 0.24431112, 0.3356758 , 0.36739239, 0.28397848,
       0.26812058, 0.26615339, 0.22608461, 0.22970731, 0.36829866,
       0.28195499, 0.27418974, 0.30154167, 0.22244281]), 'delta_distances': array([0., 0., 0., 0., 0., 0., 0., 0., 0., 0., 0., 0., 0., 0., 0., 0., 0.,
       0., 0., 0., 0., 0., 0., 0., 0., 0., 0., 0., 0., 0., 0., 0., 0., 0.]), 'locations': array([ 0,  0, 60,  0,  2,  0,  5,  0,  3,  4, 57,  1, 42,  0,  2,  5, 42,
        4,  6,  0,  8,  5,  0, 41,  1,  3,  2,  0,  4, 44,  1,  2,  0,  0])}], 'clusters': array([1, 1, 1, 1, 1, 2, 1, 1, 1, 1, 2, 1, 0, 1, 1, 1, 1, 1, 2, 1, 1, 2,
       2, 1, 1, 1, 1, 1, 1, 1, 0, 1, 1, 1, 1, 1, 1, 1, 1, 1, 1, 1, 2, 1,
       2, 2, 0, 1, 1, 1, 1, 1, 1, 1, 1, 1, 1, 1, 1, 1, 1, 1, 1, 1, 1, 1,
       1, 1, 1, 1, 1, 0, 1, 0, 1, 1, 1, 1, 1, 1, 1, 1, 0, 1, 1, 2, 1, 1,
       1, 1, 1, 1, 1, 1, 1, 0, 1, 1, 0, 1, 1, 1, 1, 1, 2, 1, 1, 1, 1, 1,
       1, 1, 1, 1, 1, 0, 2, 1, 1, 1, 1, 1, 1, 1, 2, 1, 2, 1, 2, 1, 1, 1,
       1, 1, 1, 1, 1, 1, 1, 1, 1, 1, 1, 1, 0, 1, 2, 1, 1, 1, 1, 1, 2, 1,
       1, 2, 1, 1, 1, 1, 1, 2, 1, 1, 1, 1, 1, 1, 2, 1, 1, 0, 1, 1, 1, 2,
       1, 2, 1, 1, 1, 2, 1, 1, 1, 1, 1, 1, 1, 1, 1, 1, 1, 1, 1, 1, 1, 1,
       1, 2]), 'time': 20.20604181289673}
