lenSubsequence: 20{'RI': 0.62678391959799, 'num_clusters': 4, 'uShapelets': [{'ts_index': 9, 'loc': 3, 'gap': 0.058028296114006575, 'distances': array([0.19565622, 0.20213883, 0.10830357, 0.1839125 , 0.17146034,
       0.18802326, 0.133174  , 0.19088827, 0.16816769, 0.        ,
       0.20957524, 0.19853692, 0.19650031, 0.09175413, 0.07032116,
       0.11108527, 0.20537687, 0.20755656, 0.2019821 , 0.20543252,
       0.18485444, 0.18363553, 0.17823476, 0.17341463, 0.22024482,
       0.18847396, 0.09640467, 0.18004536, 0.174322  , 0.19321435,
       0.18791568, 0.19701163, 0.05879662, 0.21546925, 0.20387596,
       0.08006483, 0.19048226, 0.19218343, 0.19804013, 0.05333371,
       0.18478389, 0.2222005 , 0.20298313, 0.19275621, 0.17714677,
       0.18212295, 0.18984344, 0.14749666, 0.1526376 , 0.18169147,
       0.14332881, 0.19702339, 0.05694884, 0.04461365, 0.20775493,
       0.1191251 , 0.17883961, 0.06429016, 0.18846699, 0.04020106,
       0.18686919, 0.20925303, 0.20421222, 0.14146751, 0.07341408,
       0.06172546, 0.19753105, 0.19942865, 0.1626842 , 0.17124952,
       0.16140853, 0.14922567, 0.17066942, 0.17298311, 0.1911746 ,
       0.15635219, 0.17468102, 0.12673912, 0.17700429, 0.1499807 ,
       0.15394253, 0.13136715, 0.21394094, 0.19150245, 0.07795292,
       0.13744045, 0.13250137, 0.09232808, 0.15384844, 0.18287862,
       0.1628594 , 0.18750152, 0.05493378, 0.1960147 , 0.07527395,
       0.12778021, 0.17151284, 0.07925505, 0.20389493, 0.12584997,
       0.08530945, 0.20438835, 0.1055902 , 0.13792261, 0.17865076,
       0.19079342, 0.05427225, 0.05834389, 0.1944862 , 0.1845822 ,
       0.10593351, 0.10220318, 0.18555526, 0.17064688, 0.07161828,
       0.16807501, 0.16878531, 0.1737684 , 0.18147535, 0.04969278,
       0.17609722, 0.21933647, 0.18636184, 0.15325484, 0.1879536 ,
       0.21434375, 0.17498666, 0.17757016, 0.2260481 , 0.19277754,
       0.21111591, 0.17306723, 0.14332254, 0.19811458, 0.17174661,
       0.18598558, 0.20436126, 0.16530456, 0.1666579 , 0.20930664,
       0.06529332, 0.11020664, 0.20145535, 0.0658301 , 0.22295221,
       0.18521539, 0.19368487, 0.11858639, 0.16651877, 0.21574993,
       0.15674285, 0.12586797, 0.15180494, 0.23504539, 0.15183172,
       0.17172558, 0.17281931, 0.07966459, 0.18017477, 0.18897438,
       0.18259377, 0.204775  , 0.13219279, 0.18184579, 0.18693408,
       0.22195778, 0.18567177, 0.20833537, 0.17448322, 0.13531364,
       0.14216264, 0.1941062 , 0.10274983, 0.18762077, 0.20242559,
       0.20535629, 0.16170846, 0.20335426, 0.1813362 , 0.1087977 ,
       0.19457476, 0.20236568, 0.14095704, 0.13732004, 0.06386725,
       0.05509877, 0.2078718 , 0.17737581, 0.1349831 , 0.18666741,
       0.04924858, 0.1877147 , 0.12449262, 0.24965293, 0.10208613,
       0.09327131, 0.20181936, 0.15778006, 0.1965866 , 0.18687035]), 'delta_distances': array([0., 0., 0., 0., 0., 0., 0., 0., 0., 0., 0., 0., 0., 0., 0., 0., 0.,
       0., 0., 0., 0., 0., 0., 0., 0., 0., 0., 0., 0., 0., 0., 0., 0., 0.,
       0., 0., 0., 0., 0., 0., 0., 0., 0., 0., 0., 0., 0., 0., 0., 0., 0.,
       0., 0., 0., 0., 0., 0., 0., 0., 0., 0., 0., 0., 0., 0., 0., 0., 0.,
       0., 0., 0., 0., 0., 0., 0., 0., 0., 0., 0., 0., 0., 0., 0., 0., 0.,
       0., 0., 0., 0., 0., 0., 0., 0., 0., 0., 0., 0., 0., 0., 0., 0., 0.,
       0., 0., 0., 0., 0., 0., 0., 0., 0., 0., 0., 0., 0., 0., 0., 0., 0.,
       0., 0., 0., 0., 0., 0., 0., 0., 0., 0., 0., 0., 0., 0., 0., 0., 0.,
       0., 0., 0., 0., 0., 0., 0., 0., 0., 0., 0., 0., 0., 0., 0., 0., 0.,
       0., 0., 0., 0., 0., 0., 0., 0., 0., 0., 0., 0., 0., 0., 0., 0., 0.,
       0., 0., 0., 0., 0., 0., 0., 0., 0., 0., 0., 0., 0., 0., 0., 0., 0.,
       0., 0., 0., 0., 0., 0., 0., 0., 0., 0., 0., 0., 0.]), 'locations': array([ 0,  0,  2,  0,  0,  0,  0,  0,  0,  3, 36, 64, 75,  0,  5,  0, 71,
       72, 68, 63, 21,  0, 73,  0, 31, 65,  1,  0,  0, 72, 73, 72,  3,  0,
       64,  1, 73,  0, 22,  1,  0, 45, 70, 51,  1,  0,  0,  0,  0, 37,  0,
       24,  3,  3, 66,  1,  1,  2, 63,  4, 21, 72, 70,  0,  5,  3,  0, 72,
        0,  0,  0,  0,  0,  4, 72,  2,  0,  1,  0,  0,  1,  1, 66, 72,  4,
        0,  0,  3,  0, 72,  0, 20,  3,  0,  0,  0,  0,  4, 39,  0,  2, 63,
        3,  0,  1, 73,  1,  1, 72,  0,  1,  2, 65,  0,  4,  0,  0,  0,  0,
        2, 63, 75,  0, 34,  0, 67,  0,  2, 56,  0, 45,  0,  0,  0,  0, 56,
       64,  0,  0, 72,  2,  1,  0,  3, 75,  1,  0,  0,  0, 75,  0,  0,  0,
       55,  1,  0, 55,  4,  0, 72,  1,  0,  1, 71, 73, 49, 72,  0,  0,  0,
        1, 43,  1, 72,  0, 72,  0, 72,  1,  1,  0, 44,  0,  0,  2,  0, 32,
        0,  0,  0,  3, 72,  1, 55,  0,  2, 36,  1, 72, 73])}, {'ts_index': 28, 'loc': 1, 'gap': 0.046953448611285836, 'distances': array([0.20980249, 0.16528921, 0.17264084, 0.21849092, 0.23696325,
       0.14307472, 0.17010738, 0.18411913, 0.19090809, 0.16127179,
       0.33069889, 0.34547429, 0.21394654, 0.22525719, 0.20302595,
       0.20291944, 0.17655527, 0.32344481, 0.20241083, 0.16949582,
       0.16347855, 0.26249074, 0.29092163, 0.16598654, 0.        ,
       0.17822697, 0.20679478, 0.14936279, 0.21061824, 0.30906981,
       0.17376151, 0.18211133, 0.3090759 , 0.19928409, 0.36250482,
       0.12520652, 0.21135868, 0.12918847, 0.16380146, 0.1535919 ,
       0.16407884, 0.18810065, 0.19369752, 0.19720092, 0.20436965,
       0.33254499, 0.11503882, 0.19739317, 0.33700242, 0.3068984 ,
       0.15447044, 0.22607309, 0.21512696, 0.14740521, 0.20343242,
       0.19194693, 0.15819673, 0.20994779, 0.14763746, 0.16057065,
       0.14895407, 0.19046491, 0.18706191, 0.19940419, 0.17094478,
       0.16427049, 0.1553485 , 0.19058736, 0.16825405, 0.30678398,
       0.18229901, 0.15348054, 0.06728115, 0.22009346, 0.20201844,
       0.1991436 , 0.31689457, 0.18284117, 0.19291887, 0.1768175 ,
       0.10812725, 0.15594393, 0.25942667, 0.25325472, 0.1978718 ,
       0.20520813, 0.18829164, 0.16219132, 0.31723524, 0.2077287 ,
       0.17537255, 0.15348418, 0.20873241, 0.14284847, 0.32721586,
       0.20014687, 0.18776633, 0.18309485, 0.20657733, 0.26251944,
       0.182971  , 0.22237277, 0.28278314, 0.18076882, 0.19717932,
       0.17177793, 0.17996987, 0.17530864, 0.20302653, 0.13908447,
       0.1985578 , 0.18306977, 0.1938222 , 0.19537399, 0.19517919,
       0.17847955, 0.18607761, 0.21074913, 0.15871749, 0.24653063,
       0.20010768, 0.14810807, 0.17654202, 0.22576319, 0.17231972,
       0.36318219, 0.17846099, 0.19110082, 0.12317388, 0.18971929,
       0.17882756, 0.21308151, 0.14840259, 0.24031855, 0.19447656,
       0.21728993, 0.3416254 , 0.18838644, 0.22805949, 0.18197195,
       0.18621261, 0.14486288, 0.19822584, 0.19336914, 0.21547713,
       0.1929487 , 0.186756  , 0.17849317, 0.17713155, 0.16321493,
       0.21826913, 0.27248144, 0.16466127, 0.11335037, 0.11581279,
       0.1678499 , 0.15061409, 0.21120442, 0.20658561, 0.13577706,
       0.32032102, 0.10697715, 0.15050671, 0.19831265, 0.1602063 ]), 'delta_distances': array([0., 0., 0., 0., 0., 0., 0., 0., 0., 0., 0., 0., 0., 0., 0., 0., 0.,
       0., 0., 0., 0., 0., 0., 0., 0., 0., 0., 0., 0., 0., 0., 0., 0., 0.,
       0., 0., 0., 0., 0., 0., 0., 0., 0., 0., 0., 0., 0., 0., 0., 0., 0.,
       0., 0., 0., 0., 0., 0., 0., 0., 0., 0., 0., 0., 0., 0., 0., 0., 0.,
       0., 0., 0., 0., 0., 0., 0., 0., 0., 0., 0., 0., 0., 0., 0., 0., 0.,
       0., 0., 0., 0., 0., 0., 0., 0., 0., 0., 0., 0., 0., 0., 0., 0., 0.,
       0., 0., 0., 0., 0., 0., 0., 0., 0., 0., 0., 0., 0., 0., 0., 0., 0.,
       0., 0., 0., 0., 0., 0., 0., 0., 0., 0., 0., 0., 0., 0., 0., 0., 0.,
       0., 0., 0., 0., 0., 0., 0., 0., 0., 0., 0., 0., 0., 0., 0., 0., 0.,
       0., 0., 0., 0., 0., 0., 0., 0., 0., 0., 0., 0.]), 'locations': array([ 1,  0,  3,  6, 10,  1,  1,  0,  6,  0, 64, 75,  1,  0,  0,  0,  0,
       29,  1,  1,  1,  0, 66,  1,  1,  1,  1,  1,  1,  0,  0,  0,  0,  1,
       45,  0,  6,  2,  1,  1,  0,  1,  0,  1,  0, 67,  2,  2, 64, 22,  1,
        1,  8,  1,  1,  1,  1,  1,  1,  0,  6,  1,  4,  6,  2,  1,  1,  2,
        2,  0,  2,  2,  3,  1,  1,  5, 22,  1,  1,  6,  0,  0, 65,  9,  2,
        1,  1,  6, 66,  1,  6,  1,  1,  2, 64,  1,  1,  0,  1,  0,  6,  4,
        0,  1,  1,  1,  1,  1,  1,  0,  0,  7,  0,  1,  3,  1,  0,  8,  5,
        1,  6,  1,  6,  9,  5,  4,  2,  1,  0,  6,  1,  8,  1,  3,  1,  2,
        0,  1,  1,  6,  1,  2,  7,  1,  0,  1,  1,  1,  8,  2,  0,  0,  1,
        1,  1,  1,  2,  0,  0,  2,  7,  0,  3,  1,  1])}, {'ts_index': 125, 'loc': 3, 'gap': 0.09028717214285924, 'distances': array([0.12126894, 0.09454352, 0.18938119, 0.31436344, 0.1361678 ,
       0.07342801, 0.09548839, 0.27888568, 0.104219  , 0.0999192 ,
       0.09520318, 0.23365073, 0.11276878, 0.06558881, 0.24724258,
       0.11776896, 0.06918436, 0.1365438 , 0.07549556, 0.        ,
       0.08842874, 0.11895928, 0.10183539, 0.10784302, 0.05271326,
       0.0779394 , 0.06073243, 0.07172559]), 'delta_distances': array([0., 0., 0., 0., 0., 0., 0., 0., 0., 0., 0., 0., 0., 0., 0., 0., 0.,
       0., 0., 0., 0., 0., 0., 0., 0., 0., 0., 0.]), 'locations': array([21,  0, 13,  0,  6,  2,  4,  0,  3,  0,  2,  0,  9,  2,  0,  2, 20,
        1,  4,  3,  9, 20, 15, 23,  0,  9,  3, 14])}], 'clusters': array([2, 2, 2, 2, 3, 2, 2, 2, 2, 1, 2, 3, 0, 1, 1, 2, 2, 2, 2, 2, 0, 2,
       2, 2, 3, 3, 1, 2, 2, 2, 2, 2, 1, 2, 3, 1, 2, 2, 0, 1, 2, 3, 2, 2,
       2, 2, 2, 2, 2, 2, 2, 2, 1, 1, 3, 2, 2, 1, 3, 1, 0, 2, 3, 2, 1, 1,
       2, 2, 2, 2, 2, 2, 2, 2, 2, 2, 2, 2, 2, 2, 2, 2, 3, 2, 1, 2, 2, 1,
       2, 2, 2, 0, 1, 2, 1, 2, 2, 1, 2, 2, 1, 3, 1, 3, 2, 2, 1, 1, 2, 2,
       1, 1, 3, 2, 1, 2, 2, 2, 2, 1, 3, 2, 2, 2, 2, 3, 2, 2, 3, 2, 2, 2,
       2, 2, 2, 2, 2, 2, 2, 2, 1, 2, 2, 1, 2, 2, 2, 3, 2, 2, 2, 2, 2, 3,
       2, 2, 2, 1, 2, 2, 2, 2, 3, 2, 2, 3, 2, 3, 2, 2, 2, 2, 1, 2, 2, 2,
       2, 2, 2, 2, 2, 3, 2, 2, 1, 1, 2, 2, 2, 2, 1, 2, 2, 3, 1, 1, 2, 2,
       2, 2]), 'time': 42.4135217666626}
lenSubsequence: 22{'RI': 0.6201005025125628, 'num_clusters': 4, 'uShapelets': [{'ts_index': 143, 'loc': 4, 'gap': 0.05483152014311189, 'distances': array([0.14486113, 0.14850184, 0.05759649, 0.14403204, 0.11601988,
       0.14215296, 0.0678573 , 0.12967078, 0.1546293 , 0.05000178,
       0.17363201, 0.16106722, 0.18480283, 0.08244037, 0.06361633,
       0.06565006, 0.14566823, 0.16336106, 0.16386258, 0.13903166,
       0.15640262, 0.16108264, 0.14612306, 0.13759387, 0.16089949,
       0.1341507 , 0.07110848, 0.13048276, 0.13349918, 0.14071614,
       0.14787588, 0.13699906, 0.06011889, 0.16900716, 0.17090941,
       0.09095707, 0.1536662 , 0.14287965, 0.17051791, 0.06007776,
       0.14281774, 0.19806115, 0.15744459, 0.15745945, 0.13357806,
       0.14730541, 0.13092603, 0.05904259, 0.11947799, 0.16044555,
       0.14211879, 0.15873571, 0.04284319, 0.04865452, 0.17646519,
       0.13026975, 0.152314  , 0.05292471, 0.16970089, 0.04915093,
       0.14074679, 0.14298937, 0.14253342, 0.12490739, 0.03988561,
       0.07655238, 0.14223212, 0.17508147, 0.14657291, 0.13918452,
       0.15282579, 0.12867324, 0.13798861, 0.14421308, 0.14808929,
       0.16697793, 0.15451044, 0.07771955, 0.14032719, 0.13511698,
       0.15350736, 0.08255882, 0.1861918 , 0.1366651 , 0.06297231,
       0.09935215, 0.13704789, 0.06230578, 0.11362414, 0.13367135,
       0.14427415, 0.15153961, 0.07661854, 0.16191335, 0.05092096,
       0.12692902, 0.17060174, 0.05308962, 0.15002584, 0.09492791,
       0.05660339, 0.13822048, 0.06124984, 0.12114917, 0.14195653,
       0.16159955, 0.05951248, 0.06568172, 0.14862697, 0.16774969,
       0.06663607, 0.07343713, 0.15437097, 0.14755181, 0.06965479,
       0.15454713, 0.14439853, 0.14927178, 0.15904796, 0.05032927,
       0.16602942, 0.16887753, 0.13869062, 0.14076664, 0.15580936,
       0.17136879, 0.16090779, 0.11977493, 0.17408595, 0.15123988,
       0.16185611, 0.15037074, 0.15055844, 0.15388412, 0.15106116,
       0.14071824, 0.1385231 , 0.15900148, 0.06450685, 0.15318909,
       0.05616083, 0.05389803, 0.14926552, 0.        , 0.20345706,
       0.14629515, 0.16352005, 0.09190628, 0.15994257, 0.17997485,
       0.15214952, 0.11045224, 0.14919885, 0.22927082, 0.14249696,
       0.14357905, 0.12773649, 0.04484242, 0.15033485, 0.14708636,
       0.14690743, 0.17118697, 0.13861414, 0.13743369, 0.15808232,
       0.18430912, 0.15657495, 0.17351182, 0.15765045, 0.13877035,
       0.09388769, 0.1527382 , 0.05653296, 0.15173409, 0.1399834 ,
       0.1723222 , 0.1481177 , 0.14347131, 0.15829621, 0.06451307,
       0.15037316, 0.16297346, 0.13909777, 0.12053798, 0.04555686,
       0.05523503, 0.1665646 , 0.14613489, 0.13501578, 0.15182082,
       0.04662992, 0.17049014, 0.11186376, 0.23405838, 0.08591436,
       0.04575404, 0.14697593, 0.11215088, 0.16273509, 0.12980333]), 'delta_distances': array([0., 0., 0., 0., 0., 0., 0., 0., 0., 0., 0., 0., 0., 0., 0., 0., 0.,
       0., 0., 0., 0., 0., 0., 0., 0., 0., 0., 0., 0., 0., 0., 0., 0., 0.,
       0., 0., 0., 0., 0., 0., 0., 0., 0., 0., 0., 0., 0., 0., 0., 0., 0.,
       0., 0., 0., 0., 0., 0., 0., 0., 0., 0., 0., 0., 0., 0., 0., 0., 0.,
       0., 0., 0., 0., 0., 0., 0., 0., 0., 0., 0., 0., 0., 0., 0., 0., 0.,
       0., 0., 0., 0., 0., 0., 0., 0., 0., 0., 0., 0., 0., 0., 0., 0., 0.,
       0., 0., 0., 0., 0., 0., 0., 0., 0., 0., 0., 0., 0., 0., 0., 0., 0.,
       0., 0., 0., 0., 0., 0., 0., 0., 0., 0., 0., 0., 0., 0., 0., 0., 0.,
       0., 0., 0., 0., 0., 0., 0., 0., 0., 0., 0., 0., 0., 0., 0., 0., 0.,
       0., 0., 0., 0., 0., 0., 0., 0., 0., 0., 0., 0., 0., 0., 0., 0., 0.,
       0., 0., 0., 0., 0., 0., 0., 0., 0., 0., 0., 0., 0., 0., 0., 0., 0.,
       0., 0., 0., 0., 0., 0., 0., 0., 0., 0., 0., 0., 0.]), 'locations': array([72,  0,  3,  0,  1, 73,  0,  0, 73,  5, 46, 65, 71,  2,  7,  1, 72,
        0, 71, 65, 23,  1, 73,  1, 64, 66,  3,  1, 55, 73,  1, 73,  4, 49,
       65,  2, 73,  0, 23,  2, 73, 43, 71, 53, 73,  1, 73,  0,  1, 43,  1,
       26,  5,  4, 66,  2, 73,  4, 64,  6, 22, 73, 72,  0,  7,  4, 73,  0,
        1,  0,  1,  1,  0,  5, 73,  3,  1,  2, 73, 73, 73,  2, 66, 73,  6,
        1,  2,  4,  0, 72,  0, 21,  4, 72,  1,  1,  5,  7, 69,  0,  3, 64,
        4,  8, 72, 73,  2,  2, 72, 73,  2,  3, 66, 72,  7,  4, 73, 72,  1,
        3, 64,  1, 73, 37,  1, 67,  1,  3,  0, 71, 73, 73,  1, 73,  1, 58,
       65,  5,  0, 73,  3,  3,  0,  4, 51, 73, 39,  0,  1, 42,  0,  1,  2,
       54,  1,  1, 57,  5, 73, 73, 72, 34,  3, 71, 73, 47, 72,  1,  0,  1,
        2, 73,  2, 73,  0, 73,  1, 72,  7,  2,  0, 64,  1,  1,  4,  2, 34,
       73,  1,  0,  4, 73,  2,  6,  1,  3, 73,  2,  0, 73])}, {'ts_index': 161, 'loc': 0, 'gap': 0.07872942609276071, 'distances': array([0.15827696, 0.17139275, 0.18189828, 0.26141469, 0.17065511,
       0.17451105, 0.13853683, 0.13610189, 0.33830883, 0.34680025,
       0.19897977, 0.18046512, 0.18378996, 0.26297465, 0.21058836,
       0.3293797 , 0.12957772, 0.19595269, 0.13762523, 0.24802862,
       0.31000402, 0.17445137, 0.15224931, 0.17591574, 0.17870859,
       0.19089003, 0.14633819, 0.34188381, 0.1578224 , 0.20179747,
       0.15959886, 0.35019934, 0.16475865, 0.37318644, 0.18450368,
       0.16527324, 0.17442233, 0.1531077 , 0.16664678, 0.17298293,
       0.22689707, 0.16415273, 0.29439262, 0.35097377, 0.11873714,
       0.14227662, 0.34785381, 0.31459347, 0.20132315, 0.24165864,
       0.21161787, 0.16947391, 0.21273074, 0.17638259, 0.16178296,
       0.17867419, 0.14602457, 0.15151978, 0.16134369, 0.17515686,
       0.12723079, 0.1563145 , 0.16532964, 0.15482092, 0.14430034,
       0.19985009, 0.32838042, 0.16757703, 0.18313204, 0.14453457,
       0.19852429, 0.18327337, 0.17361604, 0.32962412, 0.17877274,
       0.15643937, 0.13388645, 0.18948345, 0.18184808, 0.28701071,
       0.26369734, 0.13171134, 0.2044798 , 0.20111114, 0.15828738,
       0.3346171 , 0.16530226, 0.15793938, 0.1435823 , 0.15349175,
       0.19867753, 0.33606807, 0.18919688, 0.19666384, 0.18048969,
       0.16283799, 0.28296094, 0.17940986, 0.25736971, 0.28361361,
       0.15486624, 0.17448265, 0.15807166, 0.12334307, 0.15464083,
       0.17929011, 0.22112182, 0.23447035, 0.16524297, 0.16054713,
       0.18277969, 0.21020207, 0.16458666, 0.14488789, 0.25783998,
       0.16420605, 0.10563385, 0.17502639, 0.20793593, 0.15438066,
       0.37616556, 0.1234567 , 0.13948148, 0.18587021, 0.15440703,
       0.17165273, 0.17825495, 0.        , 0.24617129, 0.18617422,
       0.18739725, 0.35886331, 0.18187818, 0.17579573, 0.16259444,
       0.14057341, 0.18776239, 0.17757748, 0.18321199, 0.18383934,
       0.18566499, 0.15531827, 0.15126912, 0.18950647, 0.17392717,
       0.29634567, 0.14820724, 0.18860664, 0.20046095, 0.1560836 ,
       0.12362608, 0.17260687, 0.20842264, 0.13094659, 0.32919302,
       0.20393009, 0.20186126, 0.16981678, 0.19565625, 0.21239537]), 'delta_distances': array([0., 0., 0., 0., 0., 0., 0., 0., 0., 0., 0., 0., 0., 0., 0., 0., 0.,
       0., 0., 0., 0., 0., 0., 0., 0., 0., 0., 0., 0., 0., 0., 0., 0., 0.,
       0., 0., 0., 0., 0., 0., 0., 0., 0., 0., 0., 0., 0., 0., 0., 0., 0.,
       0., 0., 0., 0., 0., 0., 0., 0., 0., 0., 0., 0., 0., 0., 0., 0., 0.,
       0., 0., 0., 0., 0., 0., 0., 0., 0., 0., 0., 0., 0., 0., 0., 0., 0.,
       0., 0., 0., 0., 0., 0., 0., 0., 0., 0., 0., 0., 0., 0., 0., 0., 0.,
       0., 0., 0., 0., 0., 0., 0., 0., 0., 0., 0., 0., 0., 0., 0., 0., 0.,
       0., 0., 0., 0., 0., 0., 0., 0., 0., 0., 0., 0., 0., 0., 0., 0., 0.,
       0., 0., 0., 0., 0., 0., 0., 0., 0., 0., 0., 0., 0., 0., 0., 0., 0.,
       0., 0., 0., 0., 0., 0., 0.]), 'locations': array([ 1,  0,  0,  2,  1,  0,  0,  0, 65, 71,  1,  0,  0,  0,  0, 22,  1,
        1,  1,  0, 66,  1,  0,  1,  1,  1,  0,  0,  2,  0,  0, 23,  1, 43,
        0,  0,  2,  1,  1,  1,  0,  1,  0, 66,  2,  1, 64, 22,  1,  1,  1,
        1,  1,  1,  0,  1,  1,  0,  0,  1,  2,  0,  1,  1,  1,  2,  0,  2,
        2,  2,  1,  1,  0, 21,  1,  0,  0,  0,  0, 64, 10,  1,  1,  1,  0,
       66,  0,  0,  1,  1,  0, 64,  1,  1,  0,  1,  0,  0,  2,  1,  1,  1,
        1,  0,  1,  1,  0,  0,  0,  1,  0,  0,  1,  0,  0,  0,  0,  0,  1,
        0,  3,  1,  1,  0,  0,  1,  1,  0,  2,  1,  1, 48,  1,  0,  0,  1,
        2,  1,  1,  0,  1,  1,  1,  1,  0,  0,  1,  1,  0,  1,  1,  0,  0,
        2,  7,  1,  0,  2,  1,  1])}, {'ts_index': 58, 'loc': 3, 'gap': 0.16758890623055764, 'distances': array([0.05877208, 0.06587322, 0.14572896, 0.09253918, 0.31053227,
       0.05117423, 0.06513524, 0.32061715, 0.05052886, 0.27030545,
       0.06034715, 0.        , 0.2606821 , 0.0765744 , 0.28321598,
       0.10656182, 0.05872221, 0.09081461, 0.04905165, 0.08799927,
       0.07516563, 0.11491206, 0.05734638, 0.0368019 , 0.0684241 ,
       0.06657187, 0.04140295]), 'delta_distances': array([0., 0., 0., 0., 0., 0., 0., 0., 0., 0., 0., 0., 0., 0., 0., 0., 0.,
       0., 0., 0., 0., 0., 0., 0., 0., 0., 0.]), 'locations': array([22,  4, 12,  5, 39,  5,  6,  0,  4, 68,  2,  3,  0,  4,  0,  4, 22,
        0,  8,  6, 27, 10, 26, 15,  3,  5, 14])}], 'clusters': array([2, 2, 1, 2, 3, 2, 1, 2, 2, 1, 2, 3, 3, 2, 1, 1, 2, 2, 3, 2, 0, 2,
       2, 2, 2, 3, 1, 2, 2, 2, 2, 2, 1, 2, 3, 2, 2, 2, 0, 1, 2, 3, 2, 2,
       2, 2, 2, 1, 2, 2, 2, 0, 1, 1, 3, 2, 2, 1, 3, 1, 0, 2, 2, 2, 1, 1,
       2, 2, 2, 2, 2, 2, 2, 2, 2, 2, 2, 1, 2, 2, 2, 2, 3, 2, 1, 2, 2, 1,
       2, 2, 2, 0, 1, 2, 1, 2, 2, 1, 2, 2, 1, 3, 1, 3, 2, 2, 1, 1, 2, 2,
       1, 1, 3, 2, 1, 2, 2, 2, 2, 1, 3, 2, 2, 2, 2, 3, 2, 3, 3, 2, 2, 2,
       2, 2, 2, 2, 2, 2, 1, 2, 1, 1, 2, 1, 2, 2, 2, 3, 2, 2, 2, 2, 2, 3,
       2, 2, 2, 1, 2, 2, 2, 2, 2, 2, 2, 3, 2, 2, 2, 2, 2, 2, 1, 2, 2, 2,
       2, 2, 2, 1, 2, 3, 2, 2, 1, 1, 2, 2, 2, 2, 1, 2, 2, 3, 2, 1, 2, 2,
       2, 2]), 'time': 39.68416380882263}
lenSubsequence: 24{'RI': 0.6107537688442211, 'num_clusters': 4, 'uShapelets': [{'ts_index': 190, 'loc': 3, 'gap': 0.052626345542724856, 'distances': array([0.15816503, 0.1633924 , 0.07247434, 0.16128572, 0.13185898,
       0.14623472, 0.09468842, 0.15989458, 0.15731478, 0.04167954,
       0.17851801, 0.16963383, 0.18727372, 0.06059131, 0.07850173,
       0.08420979, 0.15612199, 0.18257735, 0.16763444, 0.14829326,
       0.16203483, 0.16264085, 0.15673926, 0.14408985, 0.16734394,
       0.14504244, 0.06293504, 0.14377497, 0.13975045, 0.15777479,
       0.15702661, 0.15693812, 0.06737734, 0.17636838, 0.17974058,
       0.07945317, 0.16597715, 0.16244201, 0.17398257, 0.06682972,
       0.15193016, 0.20904848, 0.16788265, 0.16358458, 0.13872871,
       0.14595337, 0.15238454, 0.10870607, 0.12803428, 0.16484512,
       0.13146863, 0.16351592, 0.04807519, 0.03304994, 0.1895913 ,
       0.11577774, 0.15286445, 0.0474055 , 0.1753797 , 0.05834857,
       0.14739311, 0.15627801, 0.15054919, 0.13014641, 0.0664453 ,
       0.04586378, 0.15257857, 0.18972502, 0.1443042 , 0.14377719,
       0.14435038, 0.1314201 , 0.15482471, 0.13491577, 0.15991049,
       0.15872016, 0.15656258, 0.08948595, 0.14560774, 0.13211016,
       0.14700391, 0.09595828, 0.19622691, 0.15302669, 0.07721436,
       0.10733482, 0.12101468, 0.05782299, 0.1287933 , 0.14800659,
       0.16300345, 0.15617676, 0.07529114, 0.16060488, 0.05467654,
       0.13097231, 0.16362607, 0.08476225, 0.16001944, 0.11495215,
       0.05123159, 0.14365814, 0.07371387, 0.12724995, 0.15381203,
       0.17216221, 0.06105291, 0.05485864, 0.16152349, 0.17065898,
       0.07831603, 0.0771198 , 0.16313819, 0.15569121, 0.08544683,
       0.15384234, 0.14501616, 0.1532334 , 0.14216038, 0.03179956,
       0.16894363, 0.17690546, 0.14728629, 0.144208  , 0.16135766,
       0.18245963, 0.16120018, 0.12188822, 0.1847854 , 0.15925335,
       0.17941178, 0.15198822, 0.14176034, 0.15886643, 0.14460555,
       0.14508119, 0.1533343 , 0.1539059 , 0.12612721, 0.16701316,
       0.06129052, 0.06598773, 0.16357681, 0.04391773, 0.20726512,
       0.16189841, 0.16931711, 0.10648124, 0.15507625, 0.186376  ,
       0.15282695, 0.11272002, 0.14775102, 0.23249567, 0.13848915,
       0.14181254, 0.13097282, 0.04391546, 0.16026393, 0.15996027,
       0.15679183, 0.17713063, 0.12836643, 0.14353319, 0.17117496,
       0.19111248, 0.16623424, 0.18400254, 0.15633997, 0.1303929 ,
       0.095318  , 0.17466261, 0.05930775, 0.16344107, 0.16421461,
       0.18148639, 0.1416402 , 0.15542784, 0.16299413, 0.07853731,
       0.16936523, 0.17304371, 0.12899806, 0.10939563, 0.04574528,
       0.05664634, 0.17252238, 0.14805691, 0.13683356, 0.17705102,
       0.        , 0.17892082, 0.1073722 , 0.2449896 , 0.07309333,
       0.06917075, 0.16358393, 0.12294536, 0.17418147, 0.14858368]), 'delta_distances': array([0., 0., 0., 0., 0., 0., 0., 0., 0., 0., 0., 0., 0., 0., 0., 0., 0.,
       0., 0., 0., 0., 0., 0., 0., 0., 0., 0., 0., 0., 0., 0., 0., 0., 0.,
       0., 0., 0., 0., 0., 0., 0., 0., 0., 0., 0., 0., 0., 0., 0., 0., 0.,
       0., 0., 0., 0., 0., 0., 0., 0., 0., 0., 0., 0., 0., 0., 0., 0., 0.,
       0., 0., 0., 0., 0., 0., 0., 0., 0., 0., 0., 0., 0., 0., 0., 0., 0.,
       0., 0., 0., 0., 0., 0., 0., 0., 0., 0., 0., 0., 0., 0., 0., 0., 0.,
       0., 0., 0., 0., 0., 0., 0., 0., 0., 0., 0., 0., 0., 0., 0., 0., 0.,
       0., 0., 0., 0., 0., 0., 0., 0., 0., 0., 0., 0., 0., 0., 0., 0., 0.,
       0., 0., 0., 0., 0., 0., 0., 0., 0., 0., 0., 0., 0., 0., 0., 0., 0.,
       0., 0., 0., 0., 0., 0., 0., 0., 0., 0., 0., 0., 0., 0., 0., 0., 0.,
       0., 0., 0., 0., 0., 0., 0., 0., 0., 0., 0., 0., 0., 0., 0., 0., 0.,
       0., 0., 0., 0., 0., 0., 0., 0., 0., 0., 0., 0., 0.]), 'locations': array([71, 71,  2,  0,  0,  0,  0,  0,  0,  3, 45, 63, 70,  1,  5,  0, 71,
        0, 69, 63, 22,  0, 71,  0, 64, 64,  1,  0, 54, 71,  0, 71,  3, 47,
       64,  1, 71,  0, 22,  1,  0, 44, 70, 51,  0,  0,  0,  0,  0, 41,  0,
       25,  3,  3, 64,  1,  0,  2, 63,  4, 21, 71, 71,  0,  5,  3,  0,  0,
        0,  0,  0,  0,  0,  4, 71,  1,  0,  1,  0,  0,  1,  1, 65, 71,  4,
        0,  1,  3,  0, 71,  0, 21,  3,  0,  0,  0,  4,  6, 69,  0,  2, 63,
        3,  0,  0, 71,  1,  1, 71,  3,  1,  2, 65, 71,  4,  4,  0,  0,  0,
        2, 63,  0,  0, 36,  0, 66,  0,  2,  0,  0, 71,  0,  0,  0,  0, 57,
       64,  4,  0, 71,  2,  1,  0,  3, 49, 71, 37,  0,  0, 39,  0,  0,  0,
       53,  0,  0, 55,  4,  0,  0, 71, 34,  1, 71, 71, 45, 71,  0,  0,  0,
        1, 71,  1, 71, 71,  0,  0, 71,  6,  1,  0, 63,  0,  0,  2,  0, 32,
        0,  0,  0,  3, 71,  1,  5,  0,  1, 71,  1,  0, 71])}, {'ts_index': 152, 'loc': 2, 'gap': 0.04201027783425787, 'distances': array([0.12025769, 0.16404836, 0.09716198, 0.15360648, 0.17721977,
       0.1329801 , 0.11892608, 0.05916865, 0.13042215, 0.24988737,
       0.2643199 , 0.14168358, 0.13580767, 0.21292768, 0.13437047,
       0.23239575, 0.08394709, 0.19068386, 0.1253747 , 0.19552807,
       0.21706609, 0.12718768, 0.16053153, 0.14333502, 0.12656898,
       0.2043529 , 0.13620557, 0.23508796, 0.19741488, 0.10639555,
       0.25217971, 0.13122943, 0.27134889, 0.1427536 , 0.08967005,
       0.17820942, 0.1405274 , 0.1696779 , 0.13517864, 0.10965065,
       0.17323011, 0.10131601, 0.23149585, 0.25743765, 0.1158212 ,
       0.0981268 , 0.26294341, 0.21280324, 0.20817398, 0.20712309,
       0.11282923, 0.18190082, 0.18219895, 0.14578584, 0.14828983,
       0.11671388, 0.1384543 , 0.08576635, 0.06798124, 0.14948272,
       0.06003389, 0.05255772, 0.1317348 , 0.15637484, 0.14229133,
       0.05983312, 0.13521425, 0.25725356, 0.14802214, 0.13877185,
       0.12059047, 0.11881552, 0.16704938, 0.07233073, 0.23032319,
       0.17188039, 0.07406451, 0.07210929, 0.1714223 , 0.13818575,
       0.18017005, 0.14451868, 0.08286471, 0.17977639, 0.1912059 ,
       0.0477026 , 0.25174309, 0.09326429, 0.05877042, 0.13104959,
       0.0956564 , 0.10132767, 0.25867364, 0.14704267, 0.18323503,
       0.14241215, 0.09369808, 0.20531749, 0.07968188, 0.14893315,
       0.17285789, 0.13507473, 0.160236  , 0.12519369, 0.0540054 ,
       0.14946252, 0.1242524 , 0.2086055 , 0.19306822, 0.05535385,
       0.15223981, 0.14288955, 0.1436629 , 0.19194302, 0.08606349,
       0.06891372, 0.15534016, 0.08428881, 0.16647716, 0.06093193,
       0.10465238, 0.        , 0.25770551, 0.06376782, 0.09427032,
       0.16553219, 0.06290219, 0.15961921, 0.09811162, 0.14189987,
       0.15372114, 0.16259617, 0.14214272, 0.26331817, 0.17268436,
       0.10070293, 0.06446811, 0.07245382, 0.14361578, 0.11422688,
       0.16589473, 0.12682101, 0.18021684, 0.12648423, 0.15195944,
       0.07889234, 0.09521965, 0.20701032, 0.12197277, 0.09604503,
       0.19468609, 0.15329668, 0.13412571, 0.0823892 , 0.18629833,
       0.11768101, 0.22174849, 0.17858392, 0.12639872, 0.1735043 ,
       0.20721724]), 'delta_distances': array([0., 0., 0., 0., 0., 0., 0., 0., 0., 0., 0., 0., 0., 0., 0., 0., 0.,
       0., 0., 0., 0., 0., 0., 0., 0., 0., 0., 0., 0., 0., 0., 0., 0., 0.,
       0., 0., 0., 0., 0., 0., 0., 0., 0., 0., 0., 0., 0., 0., 0., 0., 0.,
       0., 0., 0., 0., 0., 0., 0., 0., 0., 0., 0., 0., 0., 0., 0., 0., 0.,
       0., 0., 0., 0., 0., 0., 0., 0., 0., 0., 0., 0., 0., 0., 0., 0., 0.,
       0., 0., 0., 0., 0., 0., 0., 0., 0., 0., 0., 0., 0., 0., 0., 0., 0.,
       0., 0., 0., 0., 0., 0., 0., 0., 0., 0., 0., 0., 0., 0., 0., 0., 0.,
       0., 0., 0., 0., 0., 0., 0., 0., 0., 0., 0., 0., 0., 0., 0., 0., 0.,
       0., 0., 0., 0., 0., 0., 0., 0., 0., 0., 0., 0., 0., 0., 0., 0., 0.,
       0., 0., 0., 0., 0., 0., 0., 0.]), 'locations': array([ 3,  2,  2,  9,  3,  1,  1,  2,  1, 63, 71,  2,  0,  0,  0, 24,  3,
        2,  3,  0, 63,  2,  0,  2,  2,  2,  3,  0,  1,  1, 23,  3,  0,  0,
        2,  2,  2,  3,  0,  3,  0,  4, 31, 64,  4,  4, 62, 22,  2, 70,  4,
        3,  1,  3,  3,  4,  3,  1,  3,  3,  5,  2,  3,  3,  3,  4,  3,  0,
        4,  3,  0,  3,  3,  1, 22,  4,  3,  3,  0,  2, 64,  8,  3,  1,  2,
        2, 65,  3,  2,  3,  3,  0, 62,  2,  4,  1,  3,  0,  2,  1,  0,  3,
        3,  3,  2,  4,  4, 56,  0,  3,  0,  3,  1,  0,  4,  2,  4,  2,  2,
        2,  4,  2,  4,  3,  3,  0,  2,  3,  4,  2, 11,  3,  2, 45,  1,  2,
        2,  3,  3,  3,  1,  2,  3,  3,  3,  4,  2,  0,  4,  0,  0,  4,  3,
        1,  1,  4,  6,  0,  3,  3, 70])}, {'ts_index': 36, 'loc': 9, 'gap': 0.18549639918627567, 'distances': array([0.0580347 , 0.16700947, 0.09401035, 0.31036816, 0.06821736,
       0.05847386, 0.06934709, 0.        , 0.3242217 , 0.05748724,
       0.27204132, 0.07967   , 0.04431524, 0.28370434, 0.04803863,
       0.06532313, 0.0680631 , 0.30251874, 0.08188466, 0.04778447,
       0.07349531, 0.08840215, 0.05362364, 0.06091702, 0.0587976 ,
       0.04302537, 0.05103481]), 'delta_distances': array([0., 0., 0., 0., 0., 0., 0., 0., 0., 0., 0., 0., 0., 0., 0., 0., 0.,
       0., 0., 0., 0., 0., 0., 0., 0., 0., 0.]), 'locations': array([ 1, 11,  5, 39,  3,  9,  5,  9,  0,  4, 66,  1,  4,  0, 11,  9,  3,
        0,  1,  4,  4,  5, 13,  1,  3, 14, 11])}], 'clusters': array([2, 2, 1, 2, 2, 2, 2, 2, 2, 1, 2, 3, 3, 1, 1, 1, 2, 2, 3, 2, 0, 2,
       2, 2, 2, 3, 1, 2, 2, 2, 2, 3, 1, 2, 3, 1, 3, 2, 0, 1, 2, 3, 2, 2,
       2, 2, 2, 2, 2, 2, 2, 0, 1, 1, 3, 2, 2, 1, 3, 1, 0, 3, 3, 2, 1, 1,
       2, 2, 2, 2, 2, 2, 2, 2, 2, 2, 2, 2, 2, 2, 2, 2, 3, 2, 1, 2, 2, 1,
       2, 2, 2, 0, 1, 2, 1, 2, 2, 1, 2, 2, 1, 2, 1, 2, 2, 2, 1, 1, 2, 2,
       1, 1, 3, 2, 1, 2, 2, 2, 2, 1, 3, 2, 2, 2, 2, 3, 2, 2, 2, 2, 2, 2,
       2, 2, 2, 3, 2, 2, 2, 2, 1, 1, 2, 1, 2, 2, 2, 2, 2, 2, 2, 2, 2, 3,
       2, 2, 2, 1, 2, 2, 2, 2, 2, 2, 2, 3, 2, 2, 2, 2, 2, 2, 1, 2, 2, 2,
       2, 2, 2, 1, 2, 3, 2, 2, 1, 1, 2, 2, 2, 2, 1, 2, 2, 3, 1, 1, 2, 2,
       2, 3]), 'time': 38.083584785461426}
lenSubsequence: 29{'RI': 0.5735175879396985, 'num_clusters': 3, 'uShapelets': [{'ts_index': 182, 'loc': 2, 'gap': 0.059931782519407784, 'distances': array([0.0748264 , 0.0809454 , 0.12127048, 0.10397062, 0.1369971 ,
       0.07126412, 0.12473947, 0.09359296, 0.08974114, 0.10596176,
       0.14451274, 0.26565327, 0.30331994, 0.1383174 , 0.1761297 ,
       0.10140202, 0.10525086, 0.13182652, 0.20974278, 0.16513833,
       0.25101218, 0.08694027, 0.12327355, 0.06219028, 0.19961855,
       0.23765854, 0.12247157, 0.10650305, 0.12557018, 0.08576967,
       0.10161746, 0.10964751, 0.12295449, 0.12395651, 0.22971725,
       0.07830273, 0.11852087, 0.10160929, 0.2675193 , 0.10330167,
       0.06568693, 0.26125729, 0.16721309, 0.10146216, 0.09008348,
       0.0842475 , 0.0755836 , 0.11099296, 0.07924425, 0.17714281,
       0.05151451, 0.24647867, 0.10597293, 0.11147435, 0.29233042,
       0.06907905, 0.07656162, 0.11599667, 0.29084594, 0.11226371,
       0.23520935, 0.11499891, 0.14113082, 0.09674334, 0.13622106,
       0.12449065, 0.09499615, 0.13292717, 0.0748224 , 0.0719799 ,
       0.063892  , 0.05752177, 0.08720673, 0.10716948, 0.10786281,
       0.09319139, 0.10482692, 0.08791547, 0.06621149, 0.04715174,
       0.0684275 , 0.10216072, 0.24158991, 0.08340651, 0.14000675,
       0.10589176, 0.10973033, 0.12113466, 0.09869953, 0.11169777,
       0.11729429, 0.2495082 , 0.11467742, 0.06774868, 0.11635225,
       0.07063612, 0.08756509, 0.12073449, 0.16667989, 0.08522643,
       0.11413793, 0.21523976, 0.10784722, 0.15124038, 0.07891526,
       0.12915279, 0.11705168, 0.08214083, 0.12209487, 0.11579735,
       0.10302859, 0.0923689 , 0.27821871, 0.05813355, 0.13830587,
       0.08670938, 0.06996388, 0.06571477, 0.16196507, 0.10940795,
       0.25633434, 0.1304696 , 0.08543497, 0.16533838, 0.0947193 ,
       0.20601781, 0.10768596, 0.18240392, 0.18742562, 0.07404017,
       0.10783076, 0.06372686, 0.09176803, 0.07488742, 0.06812907,
       0.19214643, 0.18696394, 0.0847053 , 0.12325048, 0.08639498,
       0.09071178, 0.12910565, 0.09711267, 0.11936565, 0.18687869,
       0.08004011, 0.11833671, 0.14347917, 0.08186786, 0.13949787,
       0.09334199, 0.08964143, 0.10665213, 0.24445587, 0.07836921,
       0.07609102, 0.17056576, 0.1106153 , 0.09598671, 0.08968393,
       0.07163   , 0.13228947, 0.11909749, 0.09860943, 0.12003024,
       0.26438545, 0.11084971, 0.13118176, 0.09307243, 0.06061609,
       0.10890594, 0.11433785, 0.13694295, 0.11204239, 0.0906573 ,
       0.10684064, 0.05031985, 0.07940914, 0.08404394, 0.10783612,
       0.12343995, 0.21091954, 0.        , 0.12632724, 0.11640334,
       0.10763968, 0.2070678 , 0.06528209, 0.11570923, 0.1140899 ,
       0.12513544, 0.11722722, 0.05465412, 0.21292412, 0.09933435,
       0.10720609, 0.17364338, 0.10464543, 0.10578011, 0.11993476]), 'delta_distances': array([0., 0., 0., 0., 0., 0., 0., 0., 0., 0., 0., 0., 0., 0., 0., 0., 0.,
       0., 0., 0., 0., 0., 0., 0., 0., 0., 0., 0., 0., 0., 0., 0., 0., 0.,
       0., 0., 0., 0., 0., 0., 0., 0., 0., 0., 0., 0., 0., 0., 0., 0., 0.,
       0., 0., 0., 0., 0., 0., 0., 0., 0., 0., 0., 0., 0., 0., 0., 0., 0.,
       0., 0., 0., 0., 0., 0., 0., 0., 0., 0., 0., 0., 0., 0., 0., 0., 0.,
       0., 0., 0., 0., 0., 0., 0., 0., 0., 0., 0., 0., 0., 0., 0., 0., 0.,
       0., 0., 0., 0., 0., 0., 0., 0., 0., 0., 0., 0., 0., 0., 0., 0., 0.,
       0., 0., 0., 0., 0., 0., 0., 0., 0., 0., 0., 0., 0., 0., 0., 0., 0.,
       0., 0., 0., 0., 0., 0., 0., 0., 0., 0., 0., 0., 0., 0., 0., 0., 0.,
       0., 0., 0., 0., 0., 0., 0., 0., 0., 0., 0., 0., 0., 0., 0., 0., 0.,
       0., 0., 0., 0., 0., 0., 0., 0., 0., 0., 0., 0., 0., 0., 0., 0., 0.,
       0., 0., 0., 0., 0., 0., 0., 0., 0., 0., 0., 0., 0.]), 'locations': array([ 2,  1,  4,  1,  2,  2,  1,  0,  1,  6,  0,  0, 66,  3,  6,  2,  1,
        0,  0,  0, 23,  2,  2,  2,  0,  0,  4,  1,  2,  1,  2,  2,  6,  1,
        0,  4,  1,  0, 27,  4,  2,  0,  0,  0,  3,  2,  2,  1,  1,  0,  2,
       30,  6,  5, 59,  3,  2,  5,  0,  7, 22,  2,  2,  2,  8,  5,  2,  1,
        2,  1,  2,  2,  0,  1,  1,  3,  1,  3,  2,  2,  2,  3,  0,  3,  6,
        3,  4,  5,  2,  2,  0, 23,  6,  2,  3,  1,  1,  7,  1,  1,  5, 58,
        5,  3,  2,  2,  4,  4,  1,  1,  4,  4,  1,  1,  8,  1,  2,  2,  3,
        5,  0,  1,  2,  0,  1,  0,  1,  3,  0,  2,  2,  2,  1,  2,  2,  0,
        1,  1,  1,  2,  4,  4,  1,  5,  0,  2,  1,  2,  1,  1,  1,  2,  1,
        4,  2,  2,  0,  6,  1,  2,  2,  1,  4,  2,  2,  0,  2,  1,  1,  2,
        3,  1,  4,  2,  1,  2,  2,  2,  2,  3,  0,  0,  2,  2,  5,  3,  1,
        2,  2,  0,  6,  1,  3,  0,  2,  4,  0,  3,  2,  2])}, {'ts_index': 58, 'loc': 7, 'gap': 0.10028475856536642, 'distances': array([0.04778446, 0.12898915, 0.07944486, 0.05057536, 0.26261587,
       0.14717556, 0.05385839, 0.05843836, 0.25109281, 0.03768551,
       0.05696892, 0.0564405 , 0.22550947, 0.06837148, 0.        ,
       0.2114259 , 0.05913528, 0.23068628, 0.0926867 , 0.06393098,
       0.04161145, 0.0726519 , 0.06829739, 0.09259351, 0.04784597,
       0.03118729, 0.06385823, 0.04325172, 0.06655268, 0.05300685,
       0.07227679, 0.09127918, 0.04285036, 0.05913231]), 'delta_distances': array([0., 0., 0., 0., 0., 0., 0., 0., 0., 0., 0., 0., 0., 0., 0., 0., 0.,
       0., 0., 0., 0., 0., 0., 0., 0., 0., 0., 0., 0., 0., 0., 0., 0., 0.]), 'locations': array([ 5,  9, 45,  6, 40,  5,  5,  9,  3, 12,  7,  5,  4,  3,  7,  0,  5,
        0,  6,  5,  8,  6, 28, 13,  5,  6,  7, 18,  6,  4,  5,  6, 19,  5])}], 'clusters': array([1, 1, 1, 1, 1, 1, 1, 1, 1, 1, 1, 2, 2, 1, 2, 1, 1, 1, 2, 1, 0, 1,
       1, 1, 0, 2, 1, 1, 1, 1, 1, 1, 1, 1, 2, 1, 1, 1, 0, 1, 1, 2, 2, 1,
       1, 1, 1, 1, 1, 2, 1, 0, 1, 1, 2, 1, 1, 1, 2, 1, 0, 1, 1, 1, 1, 1,
       1, 1, 1, 1, 1, 1, 1, 1, 1, 1, 1, 1, 1, 1, 1, 1, 2, 1, 1, 1, 1, 1,
       1, 1, 1, 0, 1, 1, 1, 1, 1, 1, 1, 1, 1, 2, 1, 1, 1, 1, 1, 1, 1, 1,
       1, 1, 2, 1, 1, 1, 1, 1, 1, 1, 2, 1, 1, 1, 1, 2, 1, 2, 2, 1, 1, 1,
       1, 1, 1, 2, 2, 1, 1, 1, 1, 1, 1, 1, 2, 1, 1, 1, 1, 1, 1, 1, 1, 2,
       1, 1, 2, 1, 1, 1, 1, 1, 1, 1, 1, 2, 1, 1, 1, 1, 1, 1, 1, 1, 1, 1,
       1, 1, 1, 1, 1, 2, 1, 1, 1, 1, 2, 1, 1, 1, 1, 1, 1, 2, 1, 1, 2, 1,
       1, 1]), 'time': 20.49470329284668}
lenSubsequence: 31{'RI': 0.5739195979899497, 'num_clusters': 3, 'uShapelets': [{'ts_index': 113, 'loc': 1, 'gap': 0.06510481273236876, 'distances': array([0.07742364, 0.08666669, 0.12017262, 0.09643465, 0.11924409,
       0.09411786, 0.12285305, 0.08476364, 0.07955562, 0.10527158,
       0.15095214, 0.26702076, 0.2914335 , 0.14241563, 0.17224763,
       0.08961253, 0.10492008, 0.11601476, 0.21975086, 0.17118096,
       0.2401382 , 0.08699272, 0.13046555, 0.07973636, 0.20095549,
       0.24108934, 0.11969642, 0.10466122, 0.15169967, 0.07423286,
       0.11026199, 0.12579875, 0.11607666, 0.1212669 , 0.2333312 ,
       0.0896053 , 0.12812172, 0.085977  , 0.25694273, 0.09834412,
       0.0736327 , 0.25493669, 0.16991911, 0.07654396, 0.11214761,
       0.08619881, 0.09689262, 0.1153338 , 0.07128988, 0.18242415,
       0.06172556, 0.23761875, 0.10318538, 0.10879405, 0.2848133 ,
       0.08458298, 0.0592626 , 0.11694536, 0.28473218, 0.1076099 ,
       0.22959053, 0.13398068, 0.14837262, 0.07470613, 0.12927318,
       0.12489996, 0.1168367 , 0.12446197, 0.08053314, 0.06899404,
       0.04742644, 0.07973016, 0.08228815, 0.09311831, 0.0947529 ,
       0.07903036, 0.09883845, 0.08905857, 0.08707998, 0.07344221,
       0.03919132, 0.10366139, 0.24985114, 0.08075215, 0.13907568,
       0.11485242, 0.11752076, 0.1192133 , 0.08793726, 0.09649975,
       0.10304164, 0.24090775, 0.1175117 , 0.08030908, 0.11587772,
       0.05402792, 0.07930711, 0.11205342, 0.17799517, 0.08571583,
       0.11731144, 0.20329817, 0.10878829, 0.13202842, 0.07834261,
       0.12426869, 0.11453827, 0.09731177, 0.11626173, 0.08644939,
       0.09355337, 0.09276908, 0.27359666, 0.        , 0.13158674,
       0.06578858, 0.06932608, 0.04371633, 0.16051767, 0.10992098,
       0.25082563, 0.12342813, 0.08824067, 0.18517111, 0.07842135,
       0.2141584 , 0.09480374, 0.17694089, 0.17912815, 0.07099239,
       0.10335738, 0.0544579 , 0.09072567, 0.07073156, 0.04751545,
       0.20808978, 0.19804499, 0.0559488 , 0.1222421 , 0.09784481,
       0.08795017, 0.1259267 , 0.09070316, 0.1164562 , 0.19147392,
       0.04596527, 0.10258643, 0.13184069, 0.08430823, 0.15862591,
       0.07546234, 0.0733047 , 0.08024136, 0.23693206, 0.07793693,
       0.07945973, 0.17748921, 0.10988035, 0.08266007, 0.08382907,
       0.03350542, 0.15898922, 0.11154548, 0.09631668, 0.12213302,
       0.27030956, 0.11791465, 0.1241504 , 0.08218382, 0.06139622,
       0.11081652, 0.08705549, 0.13384247, 0.10166646, 0.09784685,
       0.1193027 , 0.07476701, 0.09450046, 0.04525151, 0.11033081,
       0.10722517, 0.21992299, 0.05541475, 0.13307238, 0.11570774,
       0.11522923, 0.22948576, 0.07597057, 0.12651274, 0.10568536,
       0.12468944, 0.12390477, 0.08084695, 0.20611695, 0.10422537,
       0.10685578, 0.1925637 , 0.11113399, 0.11208268, 0.13428247]), 'delta_distances': array([0., 0., 0., 0., 0., 0., 0., 0., 0., 0., 0., 0., 0., 0., 0., 0., 0.,
       0., 0., 0., 0., 0., 0., 0., 0., 0., 0., 0., 0., 0., 0., 0., 0., 0.,
       0., 0., 0., 0., 0., 0., 0., 0., 0., 0., 0., 0., 0., 0., 0., 0., 0.,
       0., 0., 0., 0., 0., 0., 0., 0., 0., 0., 0., 0., 0., 0., 0., 0., 0.,
       0., 0., 0., 0., 0., 0., 0., 0., 0., 0., 0., 0., 0., 0., 0., 0., 0.,
       0., 0., 0., 0., 0., 0., 0., 0., 0., 0., 0., 0., 0., 0., 0., 0., 0.,
       0., 0., 0., 0., 0., 0., 0., 0., 0., 0., 0., 0., 0., 0., 0., 0., 0.,
       0., 0., 0., 0., 0., 0., 0., 0., 0., 0., 0., 0., 0., 0., 0., 0., 0.,
       0., 0., 0., 0., 0., 0., 0., 0., 0., 0., 0., 0., 0., 0., 0., 0., 0.,
       0., 0., 0., 0., 0., 0., 0., 0., 0., 0., 0., 0., 0., 0., 0., 0., 0.,
       0., 0., 0., 0., 0., 0., 0., 0., 0., 0., 0., 0., 0., 0., 0., 0., 0.,
       0., 0., 0., 0., 0., 0., 0., 0., 0., 0., 0., 0., 0.]), 'locations': array([ 1,  1,  3,  0,  2,  2,  1,  0,  0,  6,  0,  0, 63,  3,  6,  2,  0,
        0,  0,  0, 23,  1,  1,  2,  0,  0,  3,  1,  1,  1,  2,  2,  5,  1,
        0,  4,  1,  0, 23,  3,  2,  0,  0,  0,  2,  2,  1,  1,  1,  0,  2,
       29,  6,  5, 57,  2,  2,  5,  0,  7, 22,  1,  2,  2,  8,  5,  2,  1,
        1,  1,  2,  2,  0,  1,  1,  3,  1,  3,  1,  2,  2,  3,  0,  2,  6,
        3,  3,  5,  1,  1,  0, 22,  6,  2,  2,  1,  1,  7,  0,  1,  4, 57,
        5,  3,  2,  1,  3,  3,  1,  0,  3,  4, 59,  1,  7,  0,  1,  1,  0,
        4,  0,  1,  2,  0,  1,  0,  1,  2,  1,  1,  1,  1,  1,  2,  2,  0,
        1,  1,  0,  1,  4,  4,  1,  5,  0,  2,  0,  2,  1,  1,  0,  2,  0,
        4,  2,  1,  0,  6,  1,  1,  2,  0,  4,  2,  2,  0,  1,  1,  0,  1,
        3,  1,  3,  1,  1,  2,  2,  2,  2,  3,  0,  0,  2,  2,  5,  3,  1,
        2,  2,  0,  5,  1,  3,  0,  2,  4,  0,  3,  1,  2])}, {'ts_index': 18, 'loc': 4, 'gap': 0.09168739183255543, 'distances': array([0.0719294 , 0.16914683, 0.        , 0.2701477 , 0.15245893,
       0.0620013 , 0.0799614 , 0.24949151, 0.09063731, 0.06446738,
       0.23600071, 0.08880472, 0.0668302 , 0.21507587, 0.06415013,
       0.23166361, 0.05339778, 0.107388  , 0.09151844, 0.07242524,
       0.13685114, 0.06795689, 0.10685349, 0.09080366, 0.0388537 ,
       0.05653252, 0.05770431, 0.08960427, 0.06244448, 0.06488976,
       0.07508721, 0.09992446, 0.08304387, 0.05268694]), 'delta_distances': array([0., 0., 0., 0., 0., 0., 0., 0., 0., 0., 0., 0., 0., 0., 0., 0., 0.,
       0., 0., 0., 0., 0., 0., 0., 0., 0., 0., 0., 0., 0., 0., 0., 0., 0.]), 'locations': array([ 3, 13,  4,  1,  4,  4,  7,  1, 11,  4,  3,  0,  5,  0,  3,  0,  5,
        4,  2,  7,  5,  5, 25, 11,  4,  4,  6, 17,  4,  3,  4,  5, 18,  4])}], 'clusters': array([1, 1, 1, 1, 1, 1, 1, 1, 1, 1, 1, 2, 0, 1, 1, 1, 1, 1, 2, 1, 0, 1,
       1, 1, 2, 2, 1, 1, 1, 1, 1, 1, 1, 1, 2, 1, 1, 1, 0, 1, 1, 2, 1, 1,
       1, 1, 1, 1, 1, 2, 1, 0, 1, 1, 2, 1, 1, 1, 2, 1, 0, 1, 1, 1, 1, 1,
       1, 1, 1, 1, 1, 1, 1, 1, 1, 1, 1, 1, 1, 1, 1, 1, 2, 1, 1, 1, 1, 1,
       1, 1, 1, 0, 1, 1, 1, 1, 1, 1, 2, 1, 1, 2, 1, 1, 1, 1, 1, 1, 1, 1,
       1, 1, 2, 1, 1, 1, 1, 1, 1, 1, 2, 1, 1, 2, 1, 2, 1, 2, 2, 1, 1, 1,
       1, 1, 1, 2, 2, 1, 1, 1, 1, 1, 1, 1, 2, 1, 1, 1, 1, 1, 1, 1, 1, 2,
       1, 1, 2, 1, 1, 1, 1, 1, 1, 1, 1, 2, 1, 1, 1, 1, 1, 1, 1, 1, 1, 1,
       1, 1, 1, 1, 1, 2, 1, 1, 1, 1, 2, 1, 1, 1, 1, 1, 1, 2, 1, 1, 2, 1,
       1, 1]), 'time': 19.305203914642334}
lenSubsequence: 33{'RI': 0.5739195979899497, 'num_clusters': 3, 'uShapelets': [{'ts_index': 137, 'loc': 0, 'gap': 0.07529539916327763, 'distances': array([0.07077037, 0.10971905, 0.11916835, 0.08257844, 0.13517488,
       0.11630068, 0.1315365 , 0.12514369, 0.06791347, 0.11808227,
       0.17587781, 0.27819798, 0.28371696, 0.15325048, 0.17260013,
       0.0991247 , 0.1071532 , 0.13648504, 0.25766678, 0.202708  ,
       0.23690918, 0.08208118, 0.152126  , 0.08901404, 0.23651721,
       0.25369601, 0.1190979 , 0.11103405, 0.17630449, 0.09805172,
       0.10886815, 0.14632002, 0.12553962, 0.13056646, 0.24842567,
       0.1027659 , 0.14652953, 0.11872178, 0.2521708 , 0.11325877,
       0.07541879, 0.26126404, 0.19947566, 0.08866756, 0.13405266,
       0.10021597, 0.11960752, 0.12787926, 0.07792355, 0.21817156,
       0.07755942, 0.2317649 , 0.1132783 , 0.1153108 , 0.27950936,
       0.09128806, 0.05781116, 0.1224732 , 0.28478108, 0.11751978,
       0.22881859, 0.15282367, 0.16496141, 0.08819417, 0.13557768,
       0.13259481, 0.13203801, 0.14727494, 0.10758925, 0.09688045,
       0.06626373, 0.09937911, 0.11830853, 0.05611494, 0.11321289,
       0.06434827, 0.07269381, 0.1021091 , 0.10857221, 0.10067807,
       0.04015954, 0.11599081, 0.27262822, 0.10643619, 0.14750267,
       0.12438486, 0.13413278, 0.12210439, 0.09399785, 0.12036935,
       0.12047525, 0.2384124 , 0.12998295, 0.10452786, 0.12029194,
       0.04967711, 0.04703597, 0.12134954, 0.21413838, 0.10966648,
       0.12120425, 0.20769598, 0.11417049, 0.12063272, 0.06146178,
       0.14582694, 0.1327241 , 0.10640515, 0.14145634, 0.07218289,
       0.10645829, 0.10209038, 0.27153438, 0.05367711, 0.13842748,
       0.06984724, 0.09582182, 0.06581462, 0.15591735, 0.11857649,
       0.26075508, 0.12874034, 0.11142201, 0.22183506, 0.07210037,
       0.24865546, 0.06435844, 0.17180267, 0.17210459, 0.09935632,
       0.12245624, 0.08435276, 0.06380691, 0.09308752, 0.07114669,
       0.22379374, 0.21500649, 0.        , 0.13650839, 0.09963745,
       0.10532193, 0.1330948 , 0.11359069, 0.12321967, 0.21243692,
       0.05106988, 0.09602362, 0.13873541, 0.0493725 , 0.17315657,
       0.05988774, 0.07657089, 0.07931569, 0.24033063, 0.06115986,
       0.07201303, 0.20731035, 0.12103939, 0.05233411, 0.11287522,
       0.0597474 , 0.17774567, 0.13503173, 0.11304841, 0.12705086,
       0.28135637, 0.1325782 , 0.11266513, 0.05516309, 0.06200699,
       0.12375909, 0.08968432, 0.13943394, 0.13057799, 0.09513572,
       0.12870131, 0.08259643, 0.10452809, 0.03946427, 0.11712662,
       0.11697046, 0.22959966, 0.08555996, 0.14648035, 0.11862024,
       0.13012064, 0.24099973, 0.09241643, 0.13269927, 0.1253207 ,
       0.13521175, 0.1380519 , 0.09205915, 0.21786541, 0.1255909 ,
       0.12059209, 0.23911557, 0.12218259, 0.12263751, 0.15612757]), 'delta_distances': array([0., 0., 0., 0., 0., 0., 0., 0., 0., 0., 0., 0., 0., 0., 0., 0., 0.,
       0., 0., 0., 0., 0., 0., 0., 0., 0., 0., 0., 0., 0., 0., 0., 0., 0.,
       0., 0., 0., 0., 0., 0., 0., 0., 0., 0., 0., 0., 0., 0., 0., 0., 0.,
       0., 0., 0., 0., 0., 0., 0., 0., 0., 0., 0., 0., 0., 0., 0., 0., 0.,
       0., 0., 0., 0., 0., 0., 0., 0., 0., 0., 0., 0., 0., 0., 0., 0., 0.,
       0., 0., 0., 0., 0., 0., 0., 0., 0., 0., 0., 0., 0., 0., 0., 0., 0.,
       0., 0., 0., 0., 0., 0., 0., 0., 0., 0., 0., 0., 0., 0., 0., 0., 0.,
       0., 0., 0., 0., 0., 0., 0., 0., 0., 0., 0., 0., 0., 0., 0., 0., 0.,
       0., 0., 0., 0., 0., 0., 0., 0., 0., 0., 0., 0., 0., 0., 0., 0., 0.,
       0., 0., 0., 0., 0., 0., 0., 0., 0., 0., 0., 0., 0., 0., 0., 0., 0.,
       0., 0., 0., 0., 0., 0., 0., 0., 0., 0., 0., 0., 0., 0., 0., 0., 0.,
       0., 0., 0., 0., 0., 0., 0., 0., 0., 0., 0., 0., 0.]), 'locations': array([ 1,  0,  2,  0,  1,  1,  0,  0,  0,  3,  0, 54, 61,  1,  3,  1,  0,
        0,  0,  0, 22,  0,  1,  1, 56, 55,  1,  0,  0,  0,  1,  1,  3,  0,
        0,  2,  0,  0, 22,  2,  1,  0,  0,  0,  1,  1,  1,  0,  0,  0,  1,
       24,  4,  3, 51,  1,  1,  3, 55,  5, 21,  0,  1,  1,  7,  3,  1,  0,
        1,  0,  1,  1,  0,  0,  0,  2,  0,  2,  1,  1,  1,  2,  0,  1,  4,
        1,  2,  3,  0,  0,  0, 21,  3,  1,  1,  0,  0,  6,  0,  0,  2, 56,
        3,  2,  1,  0,  2,  2,  0,  0,  2,  3, 56,  0,  7,  0,  0,  0,  0,
        2,  0,  0,  1, 34,  0,  0,  0,  0,  0,  1,  1,  0,  0,  1,  1, 53,
        0,  0,  0,  1,  3,  2,  0,  3,  0,  1,  0,  2,  0,  0,  0,  1,  0,
        3,  1,  1, 53,  5,  0,  0,  1,  0,  2,  1,  1, 48,  1,  0,  0,  0,
        2,  0,  1,  0,  0,  1,  1,  1,  1,  1,  0, 51,  1,  0,  2,  1, 34,
        1,  1,  0,  4,  0,  2,  6,  1,  2,  0,  2,  1,  1])}, {'ts_index': 42, 'loc': 3, 'gap': 0.09825757530112425, 'distances': array([0.11601365, 0.20083325, 0.05670443, 0.05113319, 0.25824388,
       0.14170043, 0.08332116, 0.11270285, 0.26201865, 0.14179861,
       0.        , 0.05297643, 0.24391794, 0.12856517, 0.1315312 ,
       0.24958955, 0.08369841, 0.26046761, 0.04880164, 0.10640216,
       0.1225199 , 0.11335053, 0.11825585, 0.07349046, 0.06017427,
       0.05548571, 0.05406645, 0.13699274, 0.05597825, 0.09719078,
       0.07954599, 0.11845565, 0.12783191, 0.06160279]), 'delta_distances': array([0., 0., 0., 0., 0., 0., 0., 0., 0., 0., 0., 0., 0., 0., 0., 0., 0.,
       0., 0., 0., 0., 0., 0., 0., 0., 0., 0., 0., 0., 0., 0., 0., 0., 0.]), 'locations': array([ 1, 13,  1,  3, 35,  1,  1,  3,  0,  5,  3,  2, 60,  0,  4, 26,  1,
       30,  3,  1,  1,  5,  1,  1,  2,  2,  2, 14,  2,  0,  1,  2, 15,  2])}], 'clusters': array([1, 1, 1, 1, 1, 1, 1, 1, 1, 1, 1, 2, 0, 1, 1, 1, 1, 1, 2, 2, 0, 1,
       1, 1, 2, 2, 1, 1, 1, 1, 1, 1, 1, 1, 2, 1, 1, 1, 0, 1, 1, 2, 2, 1,
       1, 1, 1, 1, 1, 2, 1, 0, 1, 1, 2, 1, 1, 1, 2, 1, 0, 1, 1, 1, 1, 1,
       1, 1, 1, 1, 1, 1, 1, 1, 1, 1, 1, 1, 1, 1, 1, 1, 2, 1, 1, 1, 1, 1,
       1, 1, 1, 0, 1, 1, 1, 1, 1, 1, 2, 1, 1, 2, 1, 1, 1, 1, 1, 1, 1, 1,
       1, 1, 2, 1, 1, 1, 1, 1, 1, 1, 2, 1, 1, 2, 1, 2, 1, 1, 1, 1, 1, 1,
       1, 1, 1, 2, 2, 1, 1, 1, 1, 1, 1, 1, 2, 1, 1, 1, 1, 1, 1, 1, 1, 2,
       1, 1, 2, 1, 1, 1, 1, 1, 1, 1, 1, 2, 1, 1, 1, 1, 1, 1, 1, 1, 1, 1,
       1, 1, 1, 1, 1, 2, 1, 1, 1, 1, 2, 1, 1, 1, 1, 1, 1, 2, 1, 1, 2, 1,
       1, 1]), 'time': 18.315666437149048}
