lenSubsequence: 7{'RI': 0.4677889447236181, 'num_clusters': 9, 'uShapelets': [{'ts_index': 48, 'loc': 51, 'gap': 0.020835303836009816, 'distances': array([0.2547231 , 0.26525043, 0.24172604, 0.24083472, 0.24964803,
       0.23951088, 0.16902659, 0.18250367, 0.21847532, 0.20315455,
       0.21966126, 0.16155097, 0.24293678, 0.22117427, 0.24720787,
       0.20206434, 0.21676556, 0.2371559 , 0.2694066 , 0.18646743,
       0.19364768, 0.2344164 , 0.21115009, 0.20912385, 0.25174216,
       0.10798619, 0.21855936, 0.21287864, 0.1869402 , 0.24416259,
       0.21207357, 0.18166524, 0.25956925, 0.2336404 , 0.21048078,
       0.23982977, 0.19170624, 0.15712676, 0.18858028, 0.22670915,
       0.22461266, 0.18363508, 0.21547578, 0.23285554, 0.15748125,
       0.2224064 , 0.17408027, 0.22906966, 0.        , 0.2068389 ,
       0.26822065, 0.27406174, 0.18321733, 0.24191215, 0.20978527,
       0.26759762, 0.23065463, 0.21711965, 0.23381187, 0.126525  ,
       0.14937559, 0.24799803, 0.2169249 , 0.14969155, 0.2186928 ,
       0.22235123, 0.24653925, 0.1890831 , 0.26246413, 0.20604806,
       0.21993687, 0.19542383, 0.13613632, 0.13035307, 0.24490418,
       0.16052331, 0.17704589, 0.20183016, 0.2033142 , 0.24066847,
       0.21243451, 0.20144966, 0.14122516, 0.22742296, 0.20946454,
       0.2169192 , 0.2498273 , 0.14048173, 0.26033975, 0.23525913,
       0.16239453, 0.24295703, 0.18524966, 0.20381236, 0.2446187 ,
       0.24018805, 0.23777694, 0.27096398, 0.21748104, 0.18039671,
       0.24561834, 0.1665086 , 0.19309763, 0.16700983, 0.19209312,
       0.16387324, 0.26055897, 0.21084719, 0.24508148, 0.18785807,
       0.19300041, 0.19318891, 0.18100004, 0.14908084, 0.21932521,
       0.23869858, 0.21289597, 0.21401996, 0.24935417, 0.11346356,
       0.24181891, 0.26184729, 0.24420978, 0.14227718, 0.24971388,
       0.24291818, 0.2585759 , 0.18788555, 0.23432765, 0.23229622,
       0.17137072, 0.14741985, 0.17487173, 0.21829198, 0.27913888,
       0.16974887, 0.25613772, 0.12392999, 0.20401114, 0.24252036,
       0.27134896, 0.22212001, 0.16289658, 0.24476908, 0.23158037,
       0.23556807, 0.27677118, 0.1953442 , 0.19195367, 0.27349847,
       0.23062073, 0.22211099, 0.21032937, 0.2062181 , 0.24738662,
       0.21154276, 0.22814628, 0.16553824, 0.18240738, 0.2381222 ,
       0.2464844 , 0.21934631, 0.20889704, 0.24429802, 0.11022024,
       0.24426154, 0.18406232, 0.22855636, 0.2177229 , 0.25479984,
       0.19826732, 0.14138193, 0.21994222, 0.15607165, 0.19587924,
       0.21879747, 0.24247068, 0.26146041, 0.26612265, 0.17808203,
       0.15844674, 0.21286214, 0.25856849, 0.27109562, 0.2409439 ,
       0.20436416, 0.22024912, 0.24450002, 0.19684466, 0.18597757,
       0.18706255, 0.17745664, 0.21762689, 0.20752388, 0.23180001,
       0.20511655, 0.23356935, 0.23065059, 0.18404677, 0.24270599]), 'delta_distances': array([0., 0., 0., 0., 0., 0., 0., 0., 0., 0., 0., 0., 0., 0., 0., 0., 0.,
       0., 0., 0., 0., 0., 0., 0., 0., 0., 0., 0., 0., 0., 0., 0., 0., 0.,
       0., 0., 0., 0., 0., 0., 0., 0., 0., 0., 0., 0., 0., 0., 0., 0., 0.,
       0., 0., 0., 0., 0., 0., 0., 0., 0., 0., 0., 0., 0., 0., 0., 0., 0.,
       0., 0., 0., 0., 0., 0., 0., 0., 0., 0., 0., 0., 0., 0., 0., 0., 0.,
       0., 0., 0., 0., 0., 0., 0., 0., 0., 0., 0., 0., 0., 0., 0., 0., 0.,
       0., 0., 0., 0., 0., 0., 0., 0., 0., 0., 0., 0., 0., 0., 0., 0., 0.,
       0., 0., 0., 0., 0., 0., 0., 0., 0., 0., 0., 0., 0., 0., 0., 0., 0.,
       0., 0., 0., 0., 0., 0., 0., 0., 0., 0., 0., 0., 0., 0., 0., 0., 0.,
       0., 0., 0., 0., 0., 0., 0., 0., 0., 0., 0., 0., 0., 0., 0., 0., 0.,
       0., 0., 0., 0., 0., 0., 0., 0., 0., 0., 0., 0., 0., 0., 0., 0., 0.,
       0., 0., 0., 0., 0., 0., 0., 0., 0., 0., 0., 0., 0.]), 'locations': array([83, 62, 81, 63, 71, 36, 39, 57,  4, 63, 20, 22, 20, 14, 38, 70,  7,
       39,  7, 11, 13, 66, 57, 50,  8, 13, 66, 65,  1, 15, 79, 68, 10, 74,
       26, 52, 22, 15, 22, 34, 67, 55, 19, 48, 56, 76, 40, 55, 51, 47, 88,
       27, 60, 76, 63, 54, 53, 11, 32, 33, 76, 18,  6, 66, 55, 41, 69, 30,
       18, 63, 21, 51, 12, 23,  0,  2, 47, 77,  8, 49, 38, 27, 10, 68, 37,
       19, 64, 32, 16, 60, 22, 75, 88, 87, 55, 18, 33, 35, 41, 34, 37, 25,
       53, 55, 56, 79, 32, 36, 71, 37, 28,  5, 78, 57,  4, 24, 65, 18, 75,
       74, 38, 24, 52, 19,  8, 26, 69, 39, 88, 40, 43, 63, 28, 11, 71, 26,
       57, 30, 72, 44, 26, 68, 59, 21, 67, 47, 11, 36,  8,  9, 29, 55, 58,
       14, 62, 77,  6, 64, 62, 24,  6, 72, 27, 71, 59, 67, 20, 22, 39,  4,
       23, 26, 79, 80, 57, 44, 85, 31, 32, 81,  4, 19, 88, 62, 67, 25, 13,
       75, 26, 45, 86, 57, 67, 64, 40, 20, 49, 56, 57, 83])}, {'ts_index': 85, 'loc': 89, 'gap': 0.01926585337110376, 'distances': array([0.24985164, 0.25212392, 0.22116353, 0.24397345, 0.20458962,
       0.21440447, 0.25319519, 0.23103231, 0.26554608, 0.23681447,
       0.22124875, 0.24446014, 0.22488117, 0.20509215, 0.21154829,
       0.20577672, 0.21972072, 0.2494857 , 0.24260325, 0.239783  ,
       0.19759452, 0.23217049, 0.18709272, 0.21833506, 0.21258427,
       0.18086561, 0.20020757, 0.20888262, 0.16481236, 0.21113537,
       0.26700993, 0.27813353, 0.22084716, 0.22041685, 0.21034216,
       0.22374856, 0.24562038, 0.18123405, 0.23636086, 0.20757193,
       0.21466878, 0.25277452, 0.22620951, 0.22149571, 0.2406588 ,
       0.23031163, 0.22185247, 0.24146915, 0.18897813, 0.20123675,
       0.23138888, 0.17228365, 0.21898042, 0.22267779, 0.22520426,
       0.16171922, 0.21706339, 0.23007086, 0.22168257, 0.26057425,
       0.20852262, 0.21774489, 0.18180144, 0.25431804, 0.23782978,
       0.20541725, 0.19389256, 0.25170263, 0.2189122 , 0.22185148,
       0.20563056, 0.196578  , 0.2714542 , 0.15833313, 0.24778445,
       0.21565496, 0.22297527, 0.13958933, 0.25192898, 0.20241842,
       0.24313562, 0.18412972, 0.23644129, 0.22102365, 0.24156251,
       0.25000289, 0.22159833, 0.22567865, 0.2527555 , 0.23595036,
       0.24946436, 0.19941731, 0.20921334, 0.16080366, 0.21989371,
       0.26395404, 0.22371806, 0.2507869 , 0.23652475, 0.23855379,
       0.21644749, 0.22659023, 0.2447304 , 0.1912283 , 0.22589631,
       0.18887157, 0.22836666, 0.24173548, 0.21320498, 0.22740957,
       0.19319917, 0.2184338 , 0.24001863, 0.20999307, 0.22400535,
       0.21205238, 0.23506059, 0.20673513, 0.23088385, 0.2317529 ,
       0.23049139, 0.1921469 , 0.25754701, 0.25134391, 0.18544315,
       0.17207832, 0.15487127, 0.23402031, 0.17869629, 0.21443113,
       0.22688288, 0.25427092, 0.23524553, 0.21416091, 0.22696027,
       0.23668806, 0.24972623, 0.20244348, 0.24219114, 0.21940155,
       0.18088186, 0.1899572 , 0.21309609, 0.19163598, 0.24172193,
       0.21977763, 0.25524539, 0.24112656, 0.2423749 , 0.18332719,
       0.23083455, 0.21823488, 0.25217319, 0.25435849, 0.24510622,
       0.22628885, 0.2414963 , 0.23252061, 0.18429637, 0.1972318 ,
       0.2429627 , 0.23236242, 0.19061532, 0.22937886, 0.26559331]), 'delta_distances': array([0., 0., 0., 0., 0., 0., 0., 0., 0., 0., 0., 0., 0., 0., 0., 0., 0.,
       0., 0., 0., 0., 0., 0., 0., 0., 0., 0., 0., 0., 0., 0., 0., 0., 0.,
       0., 0., 0., 0., 0., 0., 0., 0., 0., 0., 0., 0., 0., 0., 0., 0., 0.,
       0., 0., 0., 0., 0., 0., 0., 0., 0., 0., 0., 0., 0., 0., 0., 0., 0.,
       0., 0., 0., 0., 0., 0., 0., 0., 0., 0., 0., 0., 0., 0., 0., 0., 0.,
       0., 0., 0., 0., 0., 0., 0., 0., 0., 0., 0., 0., 0., 0., 0., 0., 0.,
       0., 0., 0., 0., 0., 0., 0., 0., 0., 0., 0., 0., 0., 0., 0., 0., 0.,
       0., 0., 0., 0., 0., 0., 0., 0., 0., 0., 0., 0., 0., 0., 0., 0., 0.,
       0., 0., 0., 0., 0., 0., 0., 0., 0., 0., 0., 0., 0., 0., 0., 0., 0.,
       0., 0., 0., 0., 0., 0., 0., 0., 0., 0., 0., 0.]), 'locations': array([ 4, 59,  2, 45, 21,  6,  8, 82, 56, 63, 48, 69, 62, 54, 71, 28, 19,
       54, 56, 34, 27, 58, 64, 75, 77, 45, 59, 14, 62, 64, 87, 12, 24, 62,
        8,  8, 28, 57, 42, 11, 78, 56, 83, 68, 64, 63, 56, 27, 74, 27,  3,
       77,  1, 20,  2, 51, 71,  4, 22, 74, 22, 61, 13, 17, 19, 25, 42, 82,
       62, 43, 24, 20,  2, 73, 80,  3, 48, 87, 45, 14, 34, 27, 13,  2, 83,
        5, 60, 68, 72, 52, 33, 39,  7, 54, 35, 79, 80, 39, 59, 56, 53, 74,
       76, 28, 26, 26, 78, 38, 31, 35, 25, 35, 54, 40, 18, 12, 72, 23, 43,
       13, 58, 44,  1, 54, 56, 43,  2, 18, 32, 41, 80,  0, 86, 73, 50, 70,
       53, 63, 18, 24, 57, 45, 80, 19, 52, 30, 51, 66,  8, 13, 75, 77,  8,
       64, 19, 29, 53, 25, 58, 31, 42, 18, 44, 32, 11])}, {'ts_index': 162, 'loc': 49, 'gap': 0.022142163236308382, 'distances': array([0.19165331, 0.21710911, 0.20179605, 0.23993927, 0.26346133,
       0.25558708, 0.27193667, 0.16856239, 0.28767862, 0.15916347,
       0.24655666, 0.26948021, 0.2786761 , 0.25374311, 0.26571614,
       0.22812063, 0.28944201, 0.24444521, 0.26425929, 0.26178146,
       0.27381426, 0.28446918, 0.1740644 , 0.29232888, 0.27328192,
       0.26405254, 0.27083796, 0.20089903, 0.23960611, 0.26190746,
       0.2579291 , 0.26153758, 0.2745988 , 0.25233705, 0.29517452,
       0.1916725 , 0.28591091, 0.27351011, 0.22599261, 0.23716489,
       0.26908954, 0.29654168, 0.27751482, 0.24497132, 0.23316998,
       0.26374948, 0.22995329, 0.2889871 , 0.23296986, 0.27772749,
       0.29408176, 0.28590259, 0.24997128, 0.2764776 , 0.27845383,
       0.20603187, 0.24102126, 0.27000214, 0.21732231, 0.27687147,
       0.2653151 , 0.26940023, 0.28415819, 0.27705744, 0.24758267,
       0.26550164, 0.20500305, 0.26144478, 0.2403671 , 0.20771656,
       0.26613375, 0.30334416, 0.19476312, 0.24617622, 0.28480556,
       0.26095397, 0.25531781, 0.19258357, 0.16160239, 0.28138946,
       0.23524435, 0.27016078, 0.2814737 , 0.2945417 , 0.29777508,
       0.2776581 , 0.27081047, 0.25728988, 0.30034145, 0.23883989,
       0.27216038, 0.18039185, 0.23439314, 0.16156723, 0.2745901 ,
       0.25640515, 0.27240724, 0.26780431, 0.28184829, 0.27078067,
       0.28079469, 0.28628296, 0.28078397, 0.19382507, 0.25976481,
       0.21807831, 0.28925046, 0.23331441, 0.28648589, 0.2800008 ,
       0.        , 0.26011786, 0.26495476, 0.26010545, 0.23713727,
       0.2756946 , 0.2109149 , 0.24373856, 0.27187161, 0.26435117,
       0.16048936, 0.25671081, 0.12008496, 0.24505338, 0.24327068,
       0.26572725, 0.21289947, 0.2763488 , 0.28393535, 0.2690966 ,
       0.28559637, 0.26961787, 0.24042018, 0.25811368, 0.25503111,
       0.27027892]), 'delta_distances': array([0., 0., 0., 0., 0., 0., 0., 0., 0., 0., 0., 0., 0., 0., 0., 0., 0.,
       0., 0., 0., 0., 0., 0., 0., 0., 0., 0., 0., 0., 0., 0., 0., 0., 0.,
       0., 0., 0., 0., 0., 0., 0., 0., 0., 0., 0., 0., 0., 0., 0., 0., 0.,
       0., 0., 0., 0., 0., 0., 0., 0., 0., 0., 0., 0., 0., 0., 0., 0., 0.,
       0., 0., 0., 0., 0., 0., 0., 0., 0., 0., 0., 0., 0., 0., 0., 0., 0.,
       0., 0., 0., 0., 0., 0., 0., 0., 0., 0., 0., 0., 0., 0., 0., 0., 0.,
       0., 0., 0., 0., 0., 0., 0., 0., 0., 0., 0., 0., 0., 0., 0., 0., 0.,
       0., 0., 0., 0., 0., 0., 0., 0., 0., 0., 0., 0., 0., 0., 0., 0., 0.]), 'locations': array([57, 50, 45, 24, 76, 13, 25,  9, 74, 64,  6, 24, 58, 55,  5, 68, 86,
       74, 83,  2, 49, 81, 47, 50, 54, 62, 60, 52, 49, 41, 55, 49, 57,  6,
       26, 77, 76, 64, 76, 17, 54, 50, 33, 13, 75, 47, 56, 26,  8, 16, 46,
       75, 43, 36, 53, 83, 83, 22, 28, 36, 67, 75,  9, 75, 83, 53, 47, 37,
       28, 86, 77, 58, 67, 70, 31, 63, 40,  8, 79, 50, 28, 33, 11, 72, 74,
       44, 64,  2, 46, 35, 44, 75, 57, 79, 77, 62, 57, 25, 28, 12, 56,  9,
       41, 28, 38, 55, 27,  1, 19, 52, 49, 34, 38, 35, 25, 44,  7, 86,  6,
       74, 81,  1, 26, 35, 48, 34, 49, 15, 83, 34, 11,  8,  7, 49, 21, 69])}, {'ts_index': 170, 'loc': 89, 'gap': 0.023441172354420503, 'distances': array([0.22999519, 0.24135372, 0.25311146, 0.23525396, 0.23193692,
       0.24649621, 0.24597394, 0.23735863, 0.23688218, 0.11950859,
       0.23228078, 0.25017734, 0.23386363, 0.21666958, 0.21246261,
       0.23109925, 0.19807157, 0.23368835, 0.17903865, 0.20520088,
       0.17130422, 0.24219035, 0.17704176, 0.23726683, 0.20470916,
       0.20876682, 0.22059123, 0.17792636, 0.22860559, 0.25175174,
       0.23022887, 0.21677517, 0.21184762, 0.26327305, 0.27193219,
       0.23620044, 0.13757737, 0.25638806, 0.19197869, 0.22285628,
       0.16241291, 0.21881678, 0.26552119, 0.21119482, 0.22964047,
       0.21887901, 0.24934264, 0.25542119, 0.22986956, 0.23539551,
       0.23652782, 0.19789705, 0.23554697, 0.2557559 , 0.17949954,
       0.21167768, 0.21120389, 0.14798354, 0.2311914 , 0.18253705,
       0.24093673, 0.23234249, 0.25515906, 0.21299311, 0.25947562,
       0.22846183, 0.19644363, 0.23492738, 0.23584539, 0.25087725,
       0.21097887, 0.25892913, 0.18848969, 0.22036763, 0.16190873,
       0.23497786, 0.24530116, 0.17486366, 0.21755063, 0.20159842,
       0.18385253, 0.2493352 , 0.20804803, 0.18514028, 0.24473227,
       0.27126343, 0.25138996, 0.1964445 , 0.21103483, 0.23557117,
       0.25959283, 0.22862494, 0.23169651, 0.18944211, 0.23461037,
       0.23590572, 0.25874472, 0.1896251 , 0.24588291, 0.23583127,
       0.26387806, 0.22355255, 0.24908509, 0.25099186, 0.25657939,
       0.23515389, 0.25149246, 0.20558635, 0.21938644, 0.2104418 ,
       0.24416902, 0.17285293]), 'delta_distances': array([0., 0., 0., 0., 0., 0., 0., 0., 0., 0., 0., 0., 0., 0., 0., 0., 0.,
       0., 0., 0., 0., 0., 0., 0., 0., 0., 0., 0., 0., 0., 0., 0., 0., 0.,
       0., 0., 0., 0., 0., 0., 0., 0., 0., 0., 0., 0., 0., 0., 0., 0., 0.,
       0., 0., 0., 0., 0., 0., 0., 0., 0., 0., 0., 0., 0., 0., 0., 0., 0.,
       0., 0., 0., 0., 0., 0., 0., 0., 0., 0., 0., 0., 0., 0., 0., 0., 0.,
       0., 0., 0., 0., 0., 0., 0., 0., 0., 0., 0., 0., 0., 0., 0., 0., 0.,
       0., 0., 0., 0., 0., 0., 0., 0., 0., 0.]), 'locations': array([11, 74,  0,  8,  8, 70, 88, 53, 34,  1, 31, 72, 13, 78,  7, 33, 12,
       47,  1, 80, 83, 66, 51, 47, 56,  4, 16, 49, 16, 22, 22, 45, 12, 36,
       20, 51,  2, 32, 76, 54, 39, 46, 73, 60, 47,  8, 48, 33, 26, 46, 70,
       56, 34,  7,  4,  2, 75, 38,  8, 34, 81, 34, 44, 19, 22, 22, 60, 70,
       21, 26, 31, 63, 31, 62, 27,  2, 27, 34, 61, 13, 42, 27, 16,  0, 44,
       27, 62, 79, 64, 41, 70, 33, 19, 73, 12, 69, 44,  2, 33, 72, 56, 16,
       26, 72, 12, 61, 69, 33, 62, 38, 35, 17])}, {'ts_index': 192, 'loc': 62, 'gap': 0.01625504866558672, 'distances': array([0.2052615 , 0.18678593, 0.19211728, 0.1856428 , 0.16369799,
       0.19451254, 0.21836245, 0.26343923, 0.23012627, 0.2408913 ,
       0.2158883 , 0.19792644, 0.16579173, 0.22676198, 0.23650101,
       0.24597198, 0.2472582 , 0.23385325, 0.22436437, 0.27448517,
       0.18640995, 0.21825313, 0.18803123, 0.14825662, 0.17837948,
       0.19635896, 0.1707087 , 0.19841481, 0.22763664, 0.21603148,
       0.24767757, 0.18050924, 0.16773573, 0.20614654, 0.16826112,
       0.19871963, 0.20066515, 0.25365321, 0.16527402, 0.20488223,
       0.22842981, 0.17960593, 0.21589169, 0.17439132, 0.21172942,
       0.27455758, 0.20556212, 0.24417847, 0.17143461, 0.16104425,
       0.15987376, 0.23460745, 0.19338322, 0.21205941, 0.10637564,
       0.19980391, 0.19163926, 0.16577738, 0.17770291, 0.2686412 ,
       0.21478066, 0.21373644, 0.21125391, 0.22667634, 0.19646979,
       0.23216784, 0.16042948, 0.22809041, 0.21926197, 0.10779155,
       0.22988025, 0.2642341 , 0.17686785, 0.17059652, 0.23144527,
       0.21690952, 0.23857448, 0.15737681, 0.21127026, 0.14677336,
       0.27218944, 0.23648696, 0.14092059, 0.27647652, 0.24240333,
       0.25376563, 0.08806873, 0.17693229, 0.        , 0.18786059,
       0.23589831, 0.27153509]), 'delta_distances': array([0., 0., 0., 0., 0., 0., 0., 0., 0., 0., 0., 0., 0., 0., 0., 0., 0.,
       0., 0., 0., 0., 0., 0., 0., 0., 0., 0., 0., 0., 0., 0., 0., 0., 0.,
       0., 0., 0., 0., 0., 0., 0., 0., 0., 0., 0., 0., 0., 0., 0., 0., 0.,
       0., 0., 0., 0., 0., 0., 0., 0., 0., 0., 0., 0., 0., 0., 0., 0., 0.,
       0., 0., 0., 0., 0., 0., 0., 0., 0., 0., 0., 0., 0., 0., 0., 0., 0.,
       0., 0., 0., 0., 0., 0., 0.]), 'locations': array([29, 43, 65, 46, 52, 57, 36, 19, 55, 68, 18, 23, 11, 59, 65, 18, 86,
       75, 55, 71, 14, 62, 74, 14, 72, 38,  1, 13, 79,  2, 21, 78, 45, 81,
       16, 83, 51, 23,  7, 29, 21, 15,  4, 49, 60, 59, 64, 82, 76,  4, 77,
       24, 29, 11, 54, 64, 81, 74, 14, 34, 44, 37, 30,  7, 15, 46, 35, 38,
       23,  7,  8,  6, 28, 50, 56, 22, 58,  4, 73, 74, 29, 29, 68,  3, 53,
       75, 71, 38, 62, 67,  0, 22])}, {'ts_index': 23, 'loc': 48, 'gap': 0.02666826747512624, 'distances': array([0.28350928, 0.26479444, 0.        , 0.34875653, 0.19535759,
       0.25849354, 0.29548249, 0.30034727, 0.34095238, 0.33191117,
       0.25323035, 0.33371794, 0.17928253, 0.28031085, 0.33525649,
       0.3412732 ]), 'delta_distances': array([0., 0., 0., 0., 0., 0., 0., 0., 0., 0., 0., 0., 0., 0., 0., 0.]), 'locations': array([12,  9, 48, 40, 44, 45,  4, 82, 19, 42, 52, 68, 33, 84, 50, 64])}, {'ts_index': 27, 'loc': 20, 'gap': 0.013578593835354202, 'distances': array([0.23413209, 0.22247652, 0.        , 0.20933053, 0.28312134,
       0.25903194, 0.2476981 , 0.25970291, 0.14548917, 0.23739355,
       0.27242044, 0.19274459]), 'delta_distances': array([0., 0., 0., 0., 0., 0., 0., 0., 0., 0., 0., 0.]), 'locations': array([59, 14, 20, 56, 68, 71, 24, 49, 61, 67, 28, 31])}, {'ts_index': 122, 'loc': 44, 'gap': 0.021775887053431503, 'distances': array([0.22304385, 0.10240359, 0.22625882, 0.21786162, 0.22458194,
       0.        , 0.23116011, 0.26885413]), 'delta_distances': array([0., 0., 0., 0., 0., 0., 0., 0.]), 'locations': array([82, 62,  9, 20, 56, 44,  7, 21])}, {'ts_index': 70, 'loc': 27, 'gap': 0.05065387878457722, 'distances': array([0.21079499, 0.        , 0.24397551, 0.2256175 , 0.16257063]), 'delta_distances': array([0., 0., 0., 0., 0.]), 'locations': array([52, 27, 18, 15, 47])}], 'clusters': array([3, 3, 3, 5, 5, 5, 1, 5, 3, 5, 3, 1, 5, 5, 0, 5, 4, 8, 5, 5, 5, 5,
       5, 6, 2, 1, 3, 7, 2, 4, 5, 2, 4, 3, 5, 4, 6, 1, 5, 5, 5, 2, 4, 3,
       1, 5, 1, 5, 1, 5, 5, 5, 5, 5, 7, 2, 4, 5, 2, 1, 1, 4, 5, 1, 4, 2,
       5, 5, 5, 5, 9, 5, 1, 1, 2, 1, 1, 3, 5, 5, 2, 3, 1, 5, 5, 5, 2, 1,
       5, 2, 1, 8, 4, 5, 2, 3, 0, 4, 2, 3, 5, 1, 4, 1, 3, 1, 5, 5, 5, 5,
       3, 3, 5, 1, 2, 5, 4, 5, 5, 1, 5, 5, 8, 1, 4, 5, 2, 4, 2, 5, 1, 1,
       1, 3, 5, 1, 3, 1, 2, 4, 5, 5, 1, 4, 5, 5, 4, 5, 5, 3, 2, 5, 3, 2,
       2, 2, 5, 1, 2, 6, 5, 5, 3, 5, 1, 5, 4, 5, 5, 3, 5, 1, 2, 1, 2, 4,
       2, 5, 3, 7, 1, 3, 5, 2, 5, 6, 3, 0, 9, 5, 5, 1, 5, 2, 2, 5, 5, 2,
       7, 4]), 'time': 700.0245313644409}
lenSubsequence: 8{'RI': 0.5232663316582915, 'num_clusters': 3, 'uShapelets': [{'ts_index': 178, 'loc': 62, 'gap': 0.052571369383244276, 'distances': array([0.04931296, 0.04046393, 0.08451562, 0.20768321, 0.04469976,
       0.07301396, 0.10926449, 0.06803554, 0.11570897, 0.05037736,
       0.12239375, 0.0527207 , 0.15646982, 0.04979399, 0.16227255,
       0.09624511, 0.03412758, 0.2182023 , 0.10535799, 0.13882332,
       0.17165482, 0.12940224, 0.18304897, 0.20763769, 0.11216343,
       0.1085545 , 0.20368472, 0.01732164, 0.05875886, 0.10086693,
       0.17522837, 0.04190148, 0.05860709, 0.10061236, 0.15965968,
       0.05308906, 0.03725168, 0.05006956, 0.12517564, 0.10777299,
       0.06914416, 0.21805669, 0.06236621, 0.14645554, 0.22866308,
       0.07433441, 0.02700097, 0.13065288, 0.04845557, 0.11303827,
       0.05417512, 0.16003055, 0.03112028, 0.18830289, 0.05297232,
       0.05443786, 0.04855439, 0.07915371, 0.14148255, 0.05457571,
       0.0556354 , 0.05480897, 0.18212995, 0.06267798, 0.2214408 ,
       0.08391922, 0.15248365, 0.17744737, 0.03256265, 0.1039885 ,
       0.0872665 , 0.12238642, 0.11957341, 0.06087524, 0.05174028,
       0.05868389, 0.10635756, 0.11936262, 0.08740611, 0.03804205,
       0.1490931 , 0.08052426, 0.08042108, 0.20026384, 0.08657293,
       0.07756964, 0.1262193 , 0.04701781, 0.04920349, 0.0375302 ,
       0.15718218, 0.05155902, 0.08917944, 0.11660534, 0.19247295,
       0.07709379, 0.21177439, 0.11545327, 0.17530616, 0.02712901,
       0.06457507, 0.07813813, 0.01099964, 0.08932675, 0.08794656,
       0.08520729, 0.04621057, 0.06800398, 0.05690645, 0.09454787,
       0.07933733, 0.07912141, 0.06930353, 0.17488762, 0.05282672,
       0.0910114 , 0.16346938, 0.01001959, 0.0759959 , 0.13389677,
       0.12630841, 0.0731335 , 0.1460249 , 0.09591646, 0.09635799,
       0.15918081, 0.19926178, 0.05992292, 0.08750319, 0.04502599,
       0.06923805, 0.19962002, 0.1245091 , 0.12275398, 0.16025768,
       0.17640268, 0.11124822, 0.11058537, 0.14966892, 0.04365749,
       0.18788303, 0.05200772, 0.08300002, 0.19301859, 0.05764089,
       0.05040575, 0.04680301, 0.17156701, 0.04425149, 0.06319804,
       0.02908786, 0.12264814, 0.0701303 , 0.09319319, 0.06017504,
       0.05478369, 0.10538444, 0.10851378, 0.03985329, 0.06033756,
       0.05623136, 0.01676321, 0.09902088, 0.097215  , 0.14845403,
       0.0530446 , 0.08455157, 0.04752839, 0.17929949, 0.04180687,
       0.15539661, 0.07852117, 0.14471965, 0.07393098, 0.08541545,
       0.03442972, 0.14921393, 0.0691352 , 0.        , 0.13637273,
       0.05113488, 0.13493752, 0.0577864 , 0.07540374, 0.08714815,
       0.05603476, 0.03997051, 0.04369334, 0.17639602, 0.12008495,
       0.12954058, 0.09894864, 0.10638352, 0.17792275, 0.18591984,
       0.17550009, 0.08745664, 0.19985274, 0.08874243, 0.17637699]), 'delta_distances': array([0., 0., 0., 0., 0., 0., 0., 0., 0., 0., 0., 0., 0., 0., 0., 0., 0.,
       0., 0., 0., 0., 0., 0., 0., 0., 0., 0., 0., 0., 0., 0., 0., 0., 0.,
       0., 0., 0., 0., 0., 0., 0., 0., 0., 0., 0., 0., 0., 0., 0., 0., 0.,
       0., 0., 0., 0., 0., 0., 0., 0., 0., 0., 0., 0., 0., 0., 0., 0., 0.,
       0., 0., 0., 0., 0., 0., 0., 0., 0., 0., 0., 0., 0., 0., 0., 0., 0.,
       0., 0., 0., 0., 0., 0., 0., 0., 0., 0., 0., 0., 0., 0., 0., 0., 0.,
       0., 0., 0., 0., 0., 0., 0., 0., 0., 0., 0., 0., 0., 0., 0., 0., 0.,
       0., 0., 0., 0., 0., 0., 0., 0., 0., 0., 0., 0., 0., 0., 0., 0., 0.,
       0., 0., 0., 0., 0., 0., 0., 0., 0., 0., 0., 0., 0., 0., 0., 0., 0.,
       0., 0., 0., 0., 0., 0., 0., 0., 0., 0., 0., 0., 0., 0., 0., 0., 0.,
       0., 0., 0., 0., 0., 0., 0., 0., 0., 0., 0., 0., 0., 0., 0., 0., 0.,
       0., 0., 0., 0., 0., 0., 0., 0., 0., 0., 0., 0., 0.]), 'locations': array([60, 36, 24, 75, 37, 51,  5, 76, 84, 16, 74, 70, 41, 12, 38, 43, 12,
       45, 40, 48, 70,  9,  5, 37, 67, 62, 47, 34, 41, 14, 10, 30, 73, 82,
       72, 86, 72, 42, 31, 55, 43, 34, 25, 61, 82, 85, 76,  7,  9, 46, 15,
       49, 51, 79, 43, 78, 11, 21, 43, 26, 45, 31, 42, 22, 27, 82, 54,  6,
       38,  8, 52, 12,  5, 74, 29, 46, 75, 32, 35, 78, 34, 84, 42, 35,  8,
        5, 81, 54, 23, 25, 11, 83, 18, 71,  5, 80, 77, 56, 77, 20,  3, 74,
       86, 40, 51, 29, 15, 54, 43, 29,  6, 10, 12, 77, 11,  9, 40, 71, 53,
       52, 75, 47,  3, 70, 86, 83, 46,  0, 45, 87, 87, 84,  5,  6, 37, 69,
       73, 52, 48, 87, 46,  5, 46, 23, 75, 70, 61,  2, 71, 71, 86, 12, 65,
       47, 12, 53, 42, 15, 86, 46,  4, 84, 66, 73,  9, 63,  1, 67, 82, 46,
       82, 84, 51, 67, 60, 39, 45, 58, 62, 32, 69, 31, 87, 73, 37, 21, 37,
        8, 85,  2, 59, 41, 79,  8, 42,  6,  0,  5, 39, 81])}, {'ts_index': 193, 'loc': 33, 'gap': 0.054252539549076995, 'distances': array([0.08934072, 0.04199787, 0.01918904, 0.0288764 , 0.03903771,
       0.0809373 , 0.02546494, 0.02509837, 0.04737892, 0.02923621,
       0.00484969, 0.14841705, 0.10872948, 0.01824431, 0.07098582,
       0.03137281, 0.02210786, 0.04390355, 0.07818248, 0.06561273,
       0.11839578, 0.0687812 , 0.1627161 , 0.06131791, 0.18091542,
       0.01281587, 0.06677052, 0.02178088, 0.06173373, 0.        ,
       0.01281766, 0.05439578, 0.1520445 , 0.04942679]), 'delta_distances': array([0., 0., 0., 0., 0., 0., 0., 0., 0., 0., 0., 0., 0., 0., 0., 0., 0.,
       0., 0., 0., 0., 0., 0., 0., 0., 0., 0., 0., 0., 0., 0., 0., 0., 0.]), 'locations': array([38,  5, 87, 26, 54, 43, 18, 80, 17,  0, 86, 62, 24, 71,  7, 33, 60,
       39,  8, 73, 33, 78,  4, 71,  6, 18, 72, 80, 78, 33, 34, 14, 36, 35])}, {'ts_index': 140, 'loc': 46, 'gap': 0.02820307821545919, 'distances': array([0.03075516, 0.06777383, 0.07690162, 0.02950814, 0.        ,
       0.03893988]), 'delta_distances': array([0., 0., 0., 0., 0., 0.]), 'locations': array([12, 33, 46, 17, 46,  5])}], 'clusters': array([1, 1, 1, 2, 1, 1, 1, 1, 1, 1, 1, 1, 1, 1, 2, 1, 1, 2, 1, 1, 2, 1,
       2, 2, 1, 1, 2, 1, 1, 1, 2, 1, 1, 1, 1, 1, 1, 1, 1, 1, 1, 2, 1, 1,
       2, 1, 1, 1, 1, 1, 1, 1, 1, 2, 1, 1, 1, 1, 1, 1, 1, 1, 3, 1, 0, 1,
       1, 2, 1, 1, 1, 1, 1, 1, 1, 1, 1, 1, 1, 1, 1, 1, 1, 2, 1, 1, 1, 1,
       1, 1, 1, 1, 1, 1, 2, 1, 2, 1, 2, 1, 1, 1, 1, 1, 1, 1, 1, 1, 1, 1,
       1, 1, 1, 2, 1, 1, 2, 1, 1, 1, 1, 1, 1, 1, 1, 1, 0, 1, 1, 1, 1, 2,
       1, 1, 3, 2, 1, 1, 1, 1, 3, 1, 1, 2, 1, 1, 1, 2, 1, 1, 1, 1, 1, 1,
       1, 1, 1, 1, 1, 1, 1, 1, 1, 1, 1, 1, 1, 1, 2, 1, 1, 1, 1, 1, 1, 1,
       1, 1, 1, 1, 1, 1, 1, 1, 1, 1, 1, 1, 2, 1, 1, 1, 1, 2, 2, 2, 1, 3,
       1, 2]), 'time': 306.40976905822754}
lenSubsequence: 9{'RI': 0.5040201005025126, 'num_clusters': 4, 'uShapelets': [{'ts_index': 175, 'loc': 63, 'gap': 0.040531772154715984, 'distances': array([0.08249892, 0.07610422, 0.17094708, 0.15042127, 0.05813517,
       0.11510649, 0.04967215, 0.15539757, 0.10376252, 0.0419741 ,
       0.02606533, 0.08635803, 0.03794327, 0.08650659, 0.01341161,
       0.1294989 , 0.03994957, 0.06814284, 0.04260014, 0.01693372,
       0.09192076, 0.10370227, 0.0483495 , 0.03039723, 0.13083289,
       0.1415415 , 0.10518623, 0.06233315, 0.07451251, 0.08947138,
       0.11417354, 0.08856862, 0.18092966, 0.09073473, 0.14182976,
       0.02207492, 0.0788822 , 0.0549648 , 0.06923871, 0.07363555,
       0.06538089, 0.14762544, 0.03031745, 0.02653968, 0.15440933,
       0.01294256, 0.0100906 , 0.11967489, 0.14797685, 0.10293724,
       0.01760913, 0.05317265, 0.00974022, 0.07642022, 0.16936368,
       0.12349766, 0.09643797, 0.02199189, 0.01416568, 0.03681319,
       0.07603739, 0.01915911, 0.01417705, 0.10054457, 0.039601  ,
       0.05009166, 0.16476289, 0.01220708, 0.07283876, 0.08937554,
       0.02344747, 0.08797149, 0.0420738 , 0.02224445, 0.05825479,
       0.09501859, 0.03359297, 0.05907985, 0.03920894, 0.07952383,
       0.07173632, 0.07668928, 0.03346812, 0.01592312, 0.02926642,
       0.07956776, 0.06071649, 0.08287014, 0.05621955, 0.06261451,
       0.03318281, 0.03808493, 0.01557382, 0.04050131, 0.01677975,
       0.05793404, 0.07173612, 0.01736174, 0.01692009, 0.14795376,
       0.02180958, 0.02263571, 0.08940502, 0.03330213, 0.03391158,
       0.01455946, 0.01829216, 0.12410283, 0.04227899, 0.03904448,
       0.10825587, 0.06052916, 0.06654922, 0.03042422, 0.09661983,
       0.09014993, 0.06181085, 0.0780925 , 0.10023858, 0.04228128,
       0.15975882, 0.07813428, 0.05198628, 0.03892209, 0.12533119,
       0.07821623, 0.022719  , 0.0193639 , 0.1153332 , 0.04289328,
       0.02261095, 0.1377022 , 0.01456187, 0.11491961, 0.01531537,
       0.02658705, 0.10111795, 0.12144713, 0.08016463, 0.05932005,
       0.02799583, 0.04221751, 0.07669991, 0.09881581, 0.07903169,
       0.09242439, 0.07393371, 0.06541127, 0.09004077, 0.05444376,
       0.1348961 , 0.11963473, 0.09990723, 0.0734563 , 0.05073179,
       0.05434558, 0.07674383, 0.14100163, 0.04431372, 0.07030431,
       0.10237132, 0.06013032, 0.03643867, 0.10241907, 0.01684421,
       0.05639152, 0.04238591, 0.03060113, 0.10880717, 0.07379476,
       0.14150605, 0.02293321, 0.01765307, 0.01865797, 0.05746158,
       0.        , 0.05179786, 0.13648099, 0.03216773, 0.05109265,
       0.0248567 , 0.08533649, 0.12212564, 0.02602274, 0.1760049 ,
       0.09855829, 0.03949968, 0.02479875, 0.02975499, 0.10224066,
       0.12228188, 0.07950863, 0.01804432, 0.16703075, 0.15453619,
       0.16021178, 0.05803619, 0.0848467 , 0.07791724, 0.15270038]), 'delta_distances': array([0., 0., 0., 0., 0., 0., 0., 0., 0., 0., 0., 0., 0., 0., 0., 0., 0.,
       0., 0., 0., 0., 0., 0., 0., 0., 0., 0., 0., 0., 0., 0., 0., 0., 0.,
       0., 0., 0., 0., 0., 0., 0., 0., 0., 0., 0., 0., 0., 0., 0., 0., 0.,
       0., 0., 0., 0., 0., 0., 0., 0., 0., 0., 0., 0., 0., 0., 0., 0., 0.,
       0., 0., 0., 0., 0., 0., 0., 0., 0., 0., 0., 0., 0., 0., 0., 0., 0.,
       0., 0., 0., 0., 0., 0., 0., 0., 0., 0., 0., 0., 0., 0., 0., 0., 0.,
       0., 0., 0., 0., 0., 0., 0., 0., 0., 0., 0., 0., 0., 0., 0., 0., 0.,
       0., 0., 0., 0., 0., 0., 0., 0., 0., 0., 0., 0., 0., 0., 0., 0., 0.,
       0., 0., 0., 0., 0., 0., 0., 0., 0., 0., 0., 0., 0., 0., 0., 0., 0.,
       0., 0., 0., 0., 0., 0., 0., 0., 0., 0., 0., 0., 0., 0., 0., 0., 0.,
       0., 0., 0., 0., 0., 0., 0., 0., 0., 0., 0., 0., 0., 0., 0., 0., 0.,
       0., 0., 0., 0., 0., 0., 0., 0., 0., 0., 0., 0., 0.]), 'locations': array([85, 53,  9, 76, 56, 76, 58, 63, 35, 71, 42, 49,  2,  2, 84, 39, 71,
       35, 33, 81, 39, 42, 36, 77, 27, 55,  7, 39, 32,  7, 84, 86, 12, 47,
       16, 57,  8, 45, 82, 28,  3, 45, 72,  6,  5, 64, 86, 63,  8,  1, 36,
       24,  7, 70, 79, 63, 80, 43, 40, 56, 57,  1, 42,  5, 18, 14,  1, 78,
       43, 19, 33, 82, 32, 13, 36, 86,  9, 41, 80, 73, 84,  7, 80, 85, 55,
       10, 56, 14, 11,  2, 11, 23, 25, 78, 64, 33, 50, 80,  3, 53, 33,  4,
       80, 47, 61,  1, 81, 53,  4, 65,  3, 17, 76, 64, 86,  4, 44, 43, 47,
       81, 49, 54, 73, 41, 85, 53, 45,  7, 36, 61, 85, 85,  7, 81,  1, 31,
       36, 37, 66, 74, 19, 30, 67, 48, 33, 72, 75, 69, 82, 48,  9, 80, 38,
       36, 77, 63, 47, 30, 78, 51, 77, 43, 73,  9, 76, 38, 34, 72, 70, 34,
       20, 29, 39, 18, 59, 63, 33, 80, 40, 47, 42, 65, 39, 80, 31, 15, 48,
       40, 10, 76,  7,  3, 48,  4, 85, 48, 38, 39,  9, 83])}, {'ts_index': 107, 'loc': 36, 'gap': 0.05090268638056371, 'distances': array([0.0199642 , 0.11503175, 0.04704831, 0.14261068, 0.08105883,
       0.07213038, 0.1554778 , 0.05989256, 0.13622242, 0.14451606,
       0.16744879, 0.08452443, 0.10932742, 0.04718866, 0.13828201,
       0.03939403, 0.        , 0.16124307, 0.12380134, 0.14186714,
       0.1742133 , 0.06766118, 0.03484642, 0.11271463, 0.12548526,
       0.17804987, 0.04149083, 0.04293267, 0.10772167, 0.01858337,
       0.16055442, 0.03509725, 0.17429507, 0.13509664]), 'delta_distances': array([0., 0., 0., 0., 0., 0., 0., 0., 0., 0., 0., 0., 0., 0., 0., 0., 0.,
       0., 0., 0., 0., 0., 0., 0., 0., 0., 0., 0., 0., 0., 0., 0., 0., 0.]), 'locations': array([ 5,  8, 82, 63, 55, 52, 54, 76,  7, 32, 71, 66, 24, 66,  4, 64, 36,
       78, 45, 34, 13, 35, 85, 58, 51, 64, 42, 68, 80, 15, 80, 47, 66, 78])}, {'ts_index': 195, 'loc': 31, 'gap': 0.02856581163605884, 'distances': array([0.04350644, 0.05329071, 0.0986332 , 0.12084867, 0.05519345,
       0.0725785 , 0.04963837, 0.14488441, 0.05697454, 0.07457889,
       0.04926954, 0.04698287, 0.06790175, 0.05691931, 0.11619022,
       0.08461739, 0.07908709, 0.        , 0.03716763]), 'delta_distances': array([0., 0., 0., 0., 0., 0., 0., 0., 0., 0., 0., 0., 0., 0., 0., 0., 0.,
       0., 0.]), 'locations': array([41,  5, 49, 57, 16, 51, 68, 41, 75, 50, 45, 84, 14, 29,  9,  9, 47,
       31, 84])}], 'clusters': array([1, 1, 2, 3, 1, 1, 1, 2, 1, 1, 1, 1, 1, 1, 1, 3, 1, 1, 1, 1, 1, 1,
       1, 1, 2, 2, 1, 1, 1, 1, 1, 1, 0, 1, 2, 1, 1, 1, 1, 1, 1, 0, 1, 1,
       3, 1, 1, 3, 2, 1, 1, 1, 1, 1, 3, 2, 1, 1, 1, 1, 1, 1, 1, 1, 1, 1,
       0, 1, 1, 1, 1, 1, 1, 1, 1, 1, 1, 1, 1, 1, 1, 1, 1, 1, 1, 1, 1, 1,
       1, 1, 1, 1, 1, 1, 1, 1, 1, 1, 1, 2, 1, 1, 1, 1, 1, 1, 1, 2, 1, 1,
       1, 1, 1, 1, 1, 1, 1, 1, 1, 1, 3, 1, 1, 1, 3, 1, 1, 1, 3, 1, 1, 3,
       1, 1, 1, 1, 1, 2, 1, 1, 1, 1, 1, 1, 1, 1, 1, 1, 1, 1, 2, 3, 1, 1,
       1, 1, 1, 3, 1, 1, 1, 1, 1, 1, 1, 1, 1, 1, 1, 1, 0, 1, 1, 1, 1, 1,
       1, 2, 1, 1, 1, 1, 2, 1, 3, 1, 1, 1, 1, 1, 2, 1, 1, 3, 2, 3, 1, 1,
       1, 3]), 'time': 322.45110297203064}
