lenSubsequence: 22{'RI': 0.5668844221105528, 'num_clusters': 3, 'uShapelets': [{'ts_index': 158, 'loc': 2, 'gap': 0.032953421047195425, 'distances': array([0.14264077, 0.20010974, 0.18638656, 0.15939791, 0.23792942,
       0.1806236 , 0.23135474, 0.20676199, 0.17089343, 0.17985668,
       0.18349718, 0.28171564, 0.28236908, 0.25923103, 0.1963661 ,
       0.17425295, 0.13528031, 0.19205899, 0.2854473 , 0.19850781,
       0.26676532, 0.12760279, 0.19153663, 0.12343177, 0.22823901,
       0.22910539, 0.21347218, 0.17464015, 0.22184344, 0.15337586,
       0.23171554, 0.21068647, 0.20165722, 0.19349222, 0.28706624,
       0.14045341, 0.23555723, 0.19246294, 0.26984625, 0.16242297,
       0.13835592, 0.31148547, 0.19866065, 0.13586846, 0.19738476,
       0.15769913, 0.23768603, 0.1712203 , 0.15289763, 0.22506418,
       0.17258085, 0.26184322, 0.17985259, 0.22465622, 0.29320794,
       0.17002988, 0.14975114, 0.17260489, 0.29312355, 0.20721093,
       0.23141337, 0.22041032, 0.17465938, 0.15937016, 0.17364731,
       0.17747118, 0.14626381, 0.21829076, 0.16330869, 0.21084573,
       0.12694878, 0.20399049, 0.21035678, 0.18890396, 0.19568723,
       0.19767183, 0.12893169, 0.16788134, 0.2069047 , 0.21738988,
       0.13771775, 0.26942483, 0.29088176, 0.17158768, 0.17327463,
       0.17830691, 0.17917599, 0.17963976, 0.15479551, 0.16349486,
       0.15592434, 0.27132732, 0.22518119, 0.20184282, 0.21527214,
       0.15297968, 0.13024088, 0.16304016, 0.25704404, 0.15399671,
       0.16012345, 0.23635539, 0.16863319, 0.20124895, 0.14141699,
       0.22864601, 0.17080194, 0.14339806, 0.21240519, 0.19701565,
       0.1720177 , 0.17467062, 0.27798773, 0.12506102, 0.18318182,
       0.19250516, 0.14009505, 0.13240258, 0.18889046, 0.16998641,
       0.28939343, 0.21688273, 0.21405545, 0.18501604, 0.13359672,
       0.20728074, 0.16572486, 0.21817273, 0.21856433, 0.20518364,
       0.169808  , 0.11965961, 0.14004445, 0.16672361, 0.19265815,
       0.24526357, 0.24756806, 0.14248639, 0.24279476, 0.16774207,
       0.15108784, 0.19196551, 0.14728316, 0.14455529, 0.23066783,
       0.1363784 , 0.11897996, 0.20962845, 0.17696368, 0.18528822,
       0.12619161, 0.16806683, 0.15701869, 0.29022198, 0.10610943,
       0.11624068, 0.22277532, 0.15408253, 0.        , 0.19492354,
       0.16346079, 0.14509977, 0.19437518, 0.16233001, 0.21895448,
       0.26178379, 0.21358267, 0.10495338, 0.13318314, 0.1301586 ,
       0.18313851, 0.22140463, 0.18734298, 0.22598738, 0.171145  ,
       0.19514009, 0.1147994 , 0.17247284, 0.16843374, 0.19286516,
       0.13236406, 0.25328967, 0.12291461, 0.17015716, 0.16867202,
       0.17827332, 0.25116076, 0.14162218, 0.15244092, 0.15970322,
       0.20078917, 0.18957326, 0.12178191, 0.26842265, 0.21196177,
       0.16243699, 0.21644398, 0.12164237, 0.14649646, 0.23367178]), 'delta_distances': array([0., 0., 0., 0., 0., 0., 0., 0., 0., 0., 0., 0., 0., 0., 0., 0., 0.,
       0., 0., 0., 0., 0., 0., 0., 0., 0., 0., 0., 0., 0., 0., 0., 0., 0.,
       0., 0., 0., 0., 0., 0., 0., 0., 0., 0., 0., 0., 0., 0., 0., 0., 0.,
       0., 0., 0., 0., 0., 0., 0., 0., 0., 0., 0., 0., 0., 0., 0., 0., 0.,
       0., 0., 0., 0., 0., 0., 0., 0., 0., 0., 0., 0., 0., 0., 0., 0., 0.,
       0., 0., 0., 0., 0., 0., 0., 0., 0., 0., 0., 0., 0., 0., 0., 0., 0.,
       0., 0., 0., 0., 0., 0., 0., 0., 0., 0., 0., 0., 0., 0., 0., 0., 0.,
       0., 0., 0., 0., 0., 0., 0., 0., 0., 0., 0., 0., 0., 0., 0., 0., 0.,
       0., 0., 0., 0., 0., 0., 0., 0., 0., 0., 0., 0., 0., 0., 0., 0., 0.,
       0., 0., 0., 0., 0., 0., 0., 0., 0., 0., 0., 0., 0., 0., 0., 0., 0.,
       0., 0., 0., 0., 0., 0., 0., 0., 0., 0., 0., 0., 0., 0., 0., 0., 0.,
       0., 0., 0., 0., 0., 0., 0., 0., 0., 0., 0., 0., 0.]), 'locations': array([ 2,  2,  3,  2, 10,  2,  1,  2,  3,  7,  1, 65, 71,  5,  9,  3,  2,
        1, 71,  0, 30,  2,  2,  2, 41, 66,  5,  2,  3,  2,  6,  3,  6,  3,
       61,  4,  1,  0, 32,  5,  3, 44,  0,  1,  4,  2,  3,  0,  2,  0,  3,
       43,  8,  6, 46,  4,  4,  5, 64,  8, 23, 73,  2,  2,  8,  3,  3,  1,
        3,  1,  3,  2,  2,  2,  1,  5,  1,  3,  4,  2,  4,  9, 63,  3,  5,
        3,  5,  6,  2,  2,  1, 39,  5,  3,  3,  3,  2,  8, 44,  2,  3,  0,
        5,  4,  2,  3,  4,  4,  2,  2,  4,  5, 62,  3,  9,  2,  3,  3,  2,
        6, 62,  3,  3,  1,  2,  0,  2,  1,  1,  3,  1,  3,  2,  3,  3, 56,
       66,  2,  1,  2,  6,  4,  1,  5,  0,  4,  2,  2,  2,  2,  2,  3,  2,
        4,  3,  3,  1,  6,  2,  3,  4,  2,  7,  2,  2, 48,  4,  2,  2,  3,
        4,  2,  5,  4,  2,  3,  3,  3,  3,  3,  1, 66,  3,  0,  7,  4, 49,
        3,  3,  1,  7,  1,  4,  6,  3,  5,  0,  3,  2,  2])}, {'ts_index': 41, 'loc': 1, 'gap': 0.053128863366933704, 'distances': array([0.1262108 , 0.10506053, 0.16351643, 0.18052048, 0.14972935,
       0.18821912, 0.28379078, 0.17328225, 0.19530625, 0.15925252,
       0.29434216, 0.        , 0.16626927, 0.26338683, 0.18176303,
       0.130892  , 0.26275627, 0.17568028, 0.16249209, 0.28511944,
       0.22480706, 0.15109347, 0.13572809, 0.1145912 , 0.19949839,
       0.17086013, 0.14897951, 0.19622887, 0.13030214, 0.17426895,
       0.16519489, 0.19250783, 0.15162646, 0.12495906]), 'delta_distances': array([0., 0., 0., 0., 0., 0., 0., 0., 0., 0., 0., 0., 0., 0., 0., 0., 0.,
       0., 0., 0., 0., 0., 0., 0., 0., 0., 0., 0., 0., 0., 0., 0., 0., 0.]), 'locations': array([19, 12,  6,  3, 18,  4, 37,  9,  6,  6, 37,  1, 13,  3,  3,  4, 40,
       11,  0, 47,  9,  5,  2,  5,  7,  5, 17,  8,  9,  5,  5,  6,  9, 11])}], 'clusters': array([1, 1, 1, 1, 2, 1, 2, 1, 1, 1, 1, 2, 2, 2, 1, 1, 1, 1, 2, 1, 0, 1,
       1, 1, 1, 1, 1, 1, 1, 1, 2, 1, 1, 1, 2, 1, 2, 1, 0, 1, 1, 2, 1, 1,
       1, 1, 2, 1, 1, 1, 1, 0, 1, 1, 2, 1, 1, 1, 2, 1, 0, 1, 1, 1, 1, 1,
       1, 1, 1, 1, 1, 1, 1, 1, 1, 1, 1, 1, 1, 1, 1, 2, 2, 1, 1, 1, 1, 1,
       1, 1, 1, 0, 1, 1, 1, 1, 1, 1, 0, 1, 1, 2, 1, 1, 1, 1, 1, 1, 1, 1,
       1, 1, 2, 1, 1, 1, 1, 1, 1, 1, 2, 1, 1, 1, 1, 1, 1, 1, 1, 1, 1, 1,
       1, 1, 1, 2, 2, 1, 2, 1, 1, 1, 1, 1, 2, 1, 1, 1, 1, 1, 1, 1, 1, 2,
       1, 1, 1, 1, 1, 1, 1, 1, 1, 1, 1, 2, 1, 1, 1, 1, 1, 1, 1, 1, 1, 1,
       1, 1, 1, 1, 1, 2, 1, 1, 1, 1, 2, 1, 1, 1, 1, 1, 1, 2, 1, 1, 1, 1,
       1, 2]), 'time': 26.259185314178467}
lenSubsequence: 25{'RI': 0.5734673366834171, 'num_clusters': 3, 'uShapelets': [{'ts_index': 160, 'loc': 3, 'gap': 0.03188578747052831, 'distances': array([0.15420007, 0.21699387, 0.21643139, 0.17681276, 0.23826764,
       0.18041827, 0.24841547, 0.22329077, 0.20169071, 0.19000065,
       0.2399044 , 0.29994897, 0.30600873, 0.23629208, 0.19965497,
       0.18005187, 0.18029291, 0.20322967, 0.29019108, 0.23950583,
       0.26198421, 0.17095015, 0.18738516, 0.15561298, 0.25090408,
       0.28332044, 0.18954137, 0.21014871, 0.22121761, 0.17974768,
       0.21972952, 0.22535843, 0.19630961, 0.18750702, 0.27843062,
       0.19129038, 0.2409723 , 0.20219932, 0.27307093, 0.19817438,
       0.14142287, 0.32206378, 0.2497247 , 0.17135196, 0.19820105,
       0.20469485, 0.24095522, 0.22483601, 0.15573284, 0.21448098,
       0.17988309, 0.28031015, 0.19609803, 0.18238264, 0.30374654,
       0.16803861, 0.16036474, 0.22435326, 0.31836466, 0.22104493,
       0.23785293, 0.25451992, 0.18955434, 0.19632774, 0.21087976,
       0.20796622, 0.17459077, 0.22307372, 0.18197402, 0.21495323,
       0.13560138, 0.20071446, 0.21483647, 0.23202676, 0.18156924,
       0.22291194, 0.1666332 , 0.18411616, 0.19102478, 0.19245364,
       0.1671206 , 0.24222813, 0.28791459, 0.16394877, 0.21975636,
       0.21569539, 0.19863321, 0.195595  , 0.16254273, 0.17566193,
       0.20195339, 0.28173504, 0.2489038 , 0.19958747, 0.22298043,
       0.17034235, 0.15133652, 0.17815691, 0.26041553, 0.1886808 ,
       0.21398006, 0.23016175, 0.18290989, 0.20612313, 0.17986333,
       0.21935209, 0.17949771, 0.16706873, 0.18718556, 0.19779477,
       0.15035552, 0.19663278, 0.28118214, 0.16164479, 0.18589825,
       0.1508062 , 0.12682895, 0.13070638, 0.20553053, 0.18829918,
       0.30311321, 0.22034488, 0.1886001 , 0.24850565, 0.15787622,
       0.24657185, 0.18709936, 0.24725185, 0.2353143 , 0.17128104,
       0.18218385, 0.13681308, 0.18302083, 0.1555895 , 0.19122346,
       0.26461406, 0.25985701, 0.17358089, 0.18578582, 0.16515167,
       0.1749712 , 0.17481714, 0.18409073, 0.20050707, 0.2761651 ,
       0.13823679, 0.17519334, 0.20454868, 0.22664963, 0.20850553,
       0.15847097, 0.1750311 , 0.21787406, 0.29992715, 0.18380989,
       0.15904563, 0.23972199, 0.16379306, 0.15908542, 0.17420239,
       0.        , 0.20884116, 0.20457229, 0.21512489, 0.22336085,
       0.28558029, 0.22071625, 0.1827671 , 0.16476129, 0.14390296,
       0.19790839, 0.21978729, 0.19617891, 0.18618905, 0.16201874,
       0.18851435, 0.14880334, 0.20427214, 0.14811194, 0.19743513,
       0.14821849, 0.26084064, 0.13790565, 0.22930456, 0.19711169,
       0.20666693, 0.27325968, 0.14561009, 0.21134165, 0.15321325,
       0.20993932, 0.1883605 , 0.14766394, 0.24704855, 0.20925639,
       0.163226  , 0.26400512, 0.20903759, 0.1706307 , 0.21070662]), 'delta_distances': array([0., 0., 0., 0., 0., 0., 0., 0., 0., 0., 0., 0., 0., 0., 0., 0., 0.,
       0., 0., 0., 0., 0., 0., 0., 0., 0., 0., 0., 0., 0., 0., 0., 0., 0.,
       0., 0., 0., 0., 0., 0., 0., 0., 0., 0., 0., 0., 0., 0., 0., 0., 0.,
       0., 0., 0., 0., 0., 0., 0., 0., 0., 0., 0., 0., 0., 0., 0., 0., 0.,
       0., 0., 0., 0., 0., 0., 0., 0., 0., 0., 0., 0., 0., 0., 0., 0., 0.,
       0., 0., 0., 0., 0., 0., 0., 0., 0., 0., 0., 0., 0., 0., 0., 0., 0.,
       0., 0., 0., 0., 0., 0., 0., 0., 0., 0., 0., 0., 0., 0., 0., 0., 0.,
       0., 0., 0., 0., 0., 0., 0., 0., 0., 0., 0., 0., 0., 0., 0., 0., 0.,
       0., 0., 0., 0., 0., 0., 0., 0., 0., 0., 0., 0., 0., 0., 0., 0., 0.,
       0., 0., 0., 0., 0., 0., 0., 0., 0., 0., 0., 0., 0., 0., 0., 0., 0.,
       0., 0., 0., 0., 0., 0., 0., 0., 0., 0., 0., 0., 0., 0., 0., 0., 0.,
       0., 0., 0., 0., 0., 0., 0., 0., 0., 0., 0., 0., 0.]), 'locations': array([ 3,  1,  4,  1, 10,  3,  2,  1,  1,  8,  2, 57, 69,  4,  9,  3,  1,
        1, 36, 56, 36,  2,  3,  2, 41, 63,  3,  2,  3,  2,  1,  3,  5,  2,
       57,  4,  2,  1, 33,  4,  2, 42,  0,  0,  3,  3,  2,  1,  1,  1,  3,
       47,  7,  5, 59,  4,  3,  6, 61,  7, 24, 67,  2,  0,  9,  1,  3,  2,
        2,  2,  3,  3,  3,  1,  2,  4,  1,  3,  2,  3,  4,  4, 60,  3,  5,
        3,  4,  7,  3,  2,  0, 40,  5,  3,  2,  2,  1,  8, 44,  2,  2, 59,
        6,  3,  3,  2,  5,  4,  2,  2,  4,  5, 61,  1,  8,  1,  2,  2,  3,
        6, 63,  2,  3,  0,  2,  0,  2,  7,  0,  2,  2,  2,  2,  3,  2, 49,
       59,  2,  1,  2,  6,  4,  1,  5,  0,  3,  1,  1,  1,  1,  1,  3,  3,
        4,  3,  2, 55,  7,  1,  3,  3,  2,  7,  2,  2, 48,  2,  2,  1,  2,
        4,  2,  4,  2,  1,  2,  2,  2,  2,  2,  1, 59,  3,  0,  6,  3, 49,
        3,  1,  0,  6,  1,  3,  0,  4,  4,  0,  3,  3,  3])}, {'ts_index': 135, 'loc': 10, 'gap': 0.037857739001187274, 'distances': array([0.13472261, 0.13655025, 0.22302313, 0.12480239, 0.28352664,
       0.16521662, 0.14939447, 0.17715797, 0.20938877, 0.12635547,
       0.10834425, 0.15474548, 0.10271988, 0.10954021, 0.16194565,
       0.21394941, 0.1471342 , 0.21917763, 0.15387378, 0.14474792,
       0.14472564, 0.09234197, 0.14039279, 0.1126047 , 0.13583849,
       0.        , 0.11829313, 0.09596418, 0.19502311, 0.11601108,
       0.12877397, 0.10275188, 0.1232161 , 0.11202161]), 'delta_distances': array([0., 0., 0., 0., 0., 0., 0., 0., 0., 0., 0., 0., 0., 0., 0., 0., 0.,
       0., 0., 0., 0., 0., 0., 0., 0., 0., 0., 0., 0., 0., 0., 0., 0., 0.]), 'locations': array([26, 12, 14,  8,  3, 10, 10, 14,  3, 18, 12,  4,  8, 11, 17, 23, 11,
        2, 33, 10, 11, 12, 10, 11, 33, 10, 14, 11, 23, 11, 12,  8, 27, 10])}, {'ts_index': 81, 'loc': 8, 'gap': 0.06821818957844678, 'distances': array([0.21921348, 0.27618042, 0.30791922, 0.        , 0.30996471,
       0.14946324]), 'delta_distances': array([0., 0., 0., 0., 0., 0.]), 'locations': array([ 9, 40, 31,  8, 50, 12])}], 'clusters': array([1, 1, 1, 1, 1, 1, 2, 1, 1, 1, 1, 2, 3, 1, 1, 1, 1, 1, 2, 1, 0, 1,
       1, 1, 2, 2, 1, 1, 1, 1, 1, 1, 1, 1, 2, 1, 1, 1, 0, 1, 1, 2, 2, 1,
       1, 1, 1, 1, 1, 1, 1, 2, 1, 1, 2, 1, 1, 1, 2, 1, 1, 2, 1, 1, 1, 1,
       1, 1, 1, 1, 1, 1, 1, 1, 1, 1, 1, 1, 1, 1, 1, 3, 2, 1, 1, 1, 1, 1,
       1, 1, 1, 0, 2, 1, 1, 1, 1, 1, 2, 1, 1, 1, 1, 1, 1, 1, 1, 1, 1, 1,
       1, 1, 2, 1, 1, 1, 1, 1, 1, 1, 2, 1, 1, 2, 1, 2, 1, 2, 1, 1, 1, 1,
       1, 1, 1, 2, 2, 1, 1, 1, 1, 1, 1, 1, 2, 1, 1, 1, 1, 1, 1, 1, 1, 3,
       1, 1, 1, 1, 1, 1, 1, 1, 1, 1, 1, 2, 1, 1, 1, 1, 1, 1, 1, 1, 1, 1,
       1, 1, 1, 1, 1, 2, 1, 1, 1, 1, 2, 1, 1, 1, 1, 1, 1, 2, 1, 1, 2, 1,
       1, 1]), 'time': 24.319223642349243}
lenSubsequence: 28{'RI': 0.581356783919598, 'num_clusters': 3, 'uShapelets': [{'ts_index': 155, 'loc': 2, 'gap': 0.03762096538869286, 'distances': array([0.10578283, 0.18845652, 0.15901123, 0.14661564, 0.20962847,
       0.15741165, 0.18678182, 0.17281469, 0.18082487, 0.16804899,
       0.18904845, 0.30144207, 0.30987759, 0.2238821 , 0.21932135,
       0.14367127, 0.13168557, 0.1683672 , 0.26913877, 0.19562204,
       0.26706633, 0.13881572, 0.16622242, 0.12680472, 0.2356867 ,
       0.25273281, 0.182255  , 0.15529138, 0.206672  , 0.15213139,
       0.18346475, 0.18125151, 0.17490364, 0.16456255, 0.2810817 ,
       0.14096395, 0.19658458, 0.16275775, 0.261987  , 0.19031552,
       0.10906663, 0.29748161, 0.18542852, 0.1184861 , 0.16681373,
       0.14929246, 0.20109441, 0.18276322, 0.11847437, 0.19738974,
       0.12891317, 0.25899116, 0.14884267, 0.17679018, 0.29013633,
       0.14839713, 0.14703095, 0.16116664, 0.28373354, 0.1957728 ,
       0.23000061, 0.21377562, 0.17650971, 0.16402759, 0.18674235,
       0.17360144, 0.14151918, 0.20673281, 0.15777308, 0.18967165,
       0.11195842, 0.18005544, 0.17999513, 0.18407874, 0.18299476,
       0.17094939, 0.12638039, 0.13346085, 0.19223911, 0.16409499,
       0.15220091, 0.2431319 , 0.27507834, 0.14651007, 0.16077409,
       0.1850343 , 0.20403317, 0.15935633, 0.13296844, 0.17489001,
       0.14446669, 0.27231741, 0.20025835, 0.16405256, 0.18487562,
       0.15601986, 0.09402301, 0.1555466 , 0.25872709, 0.16785741,
       0.14630147, 0.2140462 , 0.13115559, 0.16558873, 0.12856462,
       0.19015161, 0.16266182, 0.13347153, 0.17506773, 0.16557562,
       0.15789168, 0.15381268, 0.28620789, 0.10272564, 0.1637091 ,
       0.15272546, 0.11788786, 0.1355294 , 0.17207576, 0.15934797,
       0.29091945, 0.17948434, 0.16664332, 0.17119141, 0.11549307,
       0.19790647, 0.11941162, 0.21415708, 0.20937682, 0.16944411,
       0.15990444, 0.09837521, 0.13806498, 0.12786439, 0.16565807,
       0.2479627 , 0.23117668, 0.12598283, 0.21255666, 0.14718503,
       0.13232673, 0.1767578 , 0.14917335, 0.14454284, 0.2112033 ,
       0.10161257, 0.12404932, 0.18279021, 0.18016134, 0.15202363,
       0.11307061, 0.14625418, 0.16267934, 0.26056708, 0.10454143,
       0.        , 0.20798002, 0.15337951, 0.09494273, 0.17602589,
       0.14404965, 0.15637444, 0.17801112, 0.16576709, 0.20668363,
       0.27778817, 0.18450515, 0.103913  , 0.11111184, 0.10300549,
       0.14218025, 0.17551176, 0.17454341, 0.1873636 , 0.14286013,
       0.16047463, 0.09646239, 0.12551322, 0.10921215, 0.15313731,
       0.12039076, 0.23986583, 0.11338729, 0.17817665, 0.15457981,
       0.14449382, 0.25644106, 0.13113516, 0.13119072, 0.14910814,
       0.18241169, 0.17411853, 0.114156  , 0.22712364, 0.17972018,
       0.1579215 , 0.20378938, 0.151566  , 0.137511  , 0.19872067]), 'delta_distances': array([0., 0., 0., 0., 0., 0., 0., 0., 0., 0., 0., 0., 0., 0., 0., 0., 0.,
       0., 0., 0., 0., 0., 0., 0., 0., 0., 0., 0., 0., 0., 0., 0., 0., 0.,
       0., 0., 0., 0., 0., 0., 0., 0., 0., 0., 0., 0., 0., 0., 0., 0., 0.,
       0., 0., 0., 0., 0., 0., 0., 0., 0., 0., 0., 0., 0., 0., 0., 0., 0.,
       0., 0., 0., 0., 0., 0., 0., 0., 0., 0., 0., 0., 0., 0., 0., 0., 0.,
       0., 0., 0., 0., 0., 0., 0., 0., 0., 0., 0., 0., 0., 0., 0., 0., 0.,
       0., 0., 0., 0., 0., 0., 0., 0., 0., 0., 0., 0., 0., 0., 0., 0., 0.,
       0., 0., 0., 0., 0., 0., 0., 0., 0., 0., 0., 0., 0., 0., 0., 0., 0.,
       0., 0., 0., 0., 0., 0., 0., 0., 0., 0., 0., 0., 0., 0., 0., 0., 0.,
       0., 0., 0., 0., 0., 0., 0., 0., 0., 0., 0., 0., 0., 0., 0., 0., 0.,
       0., 0., 0., 0., 0., 0., 0., 0., 0., 0., 0., 0., 0., 0., 0., 0., 0.,
       0., 0., 0., 0., 0., 0., 0., 0., 0., 0., 0., 0., 0.]), 'locations': array([ 2,  2,  3,  0, 11,  2,  0,  0,  1,  7,  0, 59, 65,  4, 10,  3,  1,
        1,  0,  0, 29,  2,  2,  2,  0,  1,  4,  1,  2,  1,  1,  2,  4,  2,
       55,  3,  1,  0, 27,  4,  2,  0,  0,  0,  3,  4,  2,  0,  1,  0,  2,
       43,  7,  5, 59,  4,  2,  4,  0,  7, 22,  2,  2,  1,  5,  2,  2,  2,
        2,  0,  2,  3,  0,  1,  2,  3,  1,  3,  1,  2,  4,  3,  0,  2,  5,
        2,  3,  6,  2,  1,  0, 39,  4,  2,  2,  1,  1,  7, 43,  1,  2, 59,
        5,  4,  2,  2,  5,  3,  2,  1,  4,  4, 56,  2,  7,  1,  2,  2,  3,
        4,  2,  2,  2,  0,  1,  0,  1,  4,  1,  2,  1,  2,  1,  2,  2,  0,
        2,  1,  0,  1,  5,  4,  1,  4,  0,  2,  1,  2,  1,  1,  1,  2,  0,
        4,  2,  2,  1,  6,  1,  2,  3,  1,  7,  2,  2,  0,  2,  1,  1,  1,
        3,  2,  4,  2,  1,  2,  2,  2,  2,  2,  0,  0,  3,  0,  6,  3, 49,
        2,  2,  0,  7,  1,  3,  0,  3,  4,  0,  3,  1,  2])}, {'ts_index': 11, 'loc': 0, 'gap': 0.08302269460430631, 'distances': array([0.19059675, 0.        , 0.20572947, 0.16650271, 0.16902945,
       0.1818709 , 0.31626742, 0.17966041, 0.1731767 , 0.18136504,
       0.33707182, 0.11509473, 0.30901765, 0.16119627, 0.14575154,
       0.31545341, 0.1505237 , 0.19430729, 0.17892654, 0.33089167,
       0.20090512, 0.18964828, 0.17675495, 0.12300871, 0.1643978 ,
       0.17031525, 0.14162991, 0.14193613, 0.20094772, 0.12650998,
       0.15295362, 0.16534129, 0.25138893, 0.13259642]), 'delta_distances': array([0., 0., 0., 0., 0., 0., 0., 0., 0., 0., 0., 0., 0., 0., 0., 0., 0.,
       0., 0., 0., 0., 0., 0., 0., 0., 0., 0., 0., 0., 0., 0., 0., 0., 0.]), 'locations': array([13,  0,  4, 20, 40,  4, 38,  1,  4,  4, 49,  6, 59,  1,  2, 34,  5,
       13,  2,  2,  4,  5,  0,  2, 22,  4,  5, 19,  3,  8,  0,  3,  5, 15])}], 'clusters': array([1, 1, 1, 1, 2, 1, 1, 1, 1, 1, 1, 2, 2, 2, 2, 1, 1, 1, 2, 1, 0, 1,
       1, 1, 2, 2, 1, 1, 1, 1, 1, 1, 1, 1, 2, 1, 1, 1, 0, 1, 1, 2, 1, 1,
       1, 1, 1, 1, 1, 1, 1, 0, 1, 1, 2, 1, 1, 1, 2, 1, 0, 2, 1, 1, 1, 1,
       1, 1, 1, 1, 1, 1, 1, 1, 1, 1, 1, 1, 1, 1, 1, 2, 2, 1, 1, 1, 1, 1,
       1, 1, 1, 0, 1, 1, 1, 1, 1, 1, 2, 1, 1, 2, 1, 1, 1, 1, 1, 1, 1, 1,
       1, 1, 2, 1, 1, 1, 1, 1, 1, 1, 2, 1, 1, 1, 1, 1, 1, 2, 1, 1, 1, 1,
       1, 1, 1, 2, 2, 1, 2, 1, 1, 1, 1, 1, 2, 1, 1, 1, 1, 1, 1, 1, 1, 2,
       1, 1, 1, 1, 1, 1, 1, 1, 1, 1, 1, 2, 1, 1, 1, 1, 1, 1, 1, 1, 1, 1,
       1, 1, 1, 1, 1, 2, 1, 1, 1, 1, 0, 1, 1, 1, 1, 1, 1, 2, 1, 1, 1, 1,
       1, 1]), 'time': 22.778436183929443}
lenSubsequence: 31{'RI': 0.594070351758794, 'num_clusters': 4, 'uShapelets': [{'ts_index': 193, 'loc': 2, 'gap': 0.03182402348421218, 'distances': array([0.15978916, 0.14972848, 0.12615657, 0.15535921, 0.15104647,
       0.12834691, 0.13371882, 0.16878175, 0.21554003, 0.14755197,
       0.20825039, 0.20469338, 0.2093208 , 0.12399606, 0.13089209,
       0.12550082, 0.12636647, 0.16288876, 0.25084042, 0.21063074,
       0.22516133, 0.20510409, 0.16177513, 0.16241295, 0.19369803,
       0.22634731, 0.14732344, 0.16883506, 0.19003093, 0.18244382,
       0.16065397, 0.15988589, 0.13655998, 0.21456017, 0.20394971,
       0.13890847, 0.16939468, 0.17522542, 0.23679823, 0.14175825,
       0.13152721, 0.15156098, 0.2312652 , 0.15174015, 0.14191905,
       0.18414575, 0.1638643 , 0.14190271, 0.1310281 , 0.20058605,
       0.14296431, 0.20747077, 0.10735135, 0.13589681, 0.21030411,
       0.16215158, 0.17564048, 0.0968655 , 0.16852587, 0.09858759,
       0.22911723, 0.17558916, 0.14301238, 0.14403988, 0.14403114,
       0.11775442, 0.13630479, 0.14440477, 0.14048008, 0.15413006,
       0.12890043, 0.1822926 , 0.19111006, 0.19557305, 0.17438211,
       0.22782254, 0.16714284, 0.10079343, 0.11581463, 0.16970244,
       0.18914947, 0.22228973, 0.21886275, 0.1411684 , 0.1272827 ,
       0.16533507, 0.17283012, 0.13254248, 0.13443022, 0.15504451,
       0.21369278, 0.22818301, 0.11846647, 0.13641299, 0.10831474,
       0.18731678, 0.19173284, 0.14080669, 0.22269428, 0.15108669,
       0.12387822, 0.19011376, 0.12897272, 0.1286467 , 0.1922496 ,
       0.16825299, 0.12367713, 0.13654149, 0.11420209, 0.21943737,
       0.12200201, 0.12311758, 0.21977567, 0.1605264 , 0.1116884 ,
       0.18271482, 0.16054006, 0.13896254, 0.17342408, 0.16627164,
       0.12839483, 0.1583064 , 0.09814101, 0.20942692, 0.14978009,
       0.18778657, 0.18944617, 0.11976153, 0.15162854, 0.17062523,
       0.12024481, 0.13791294, 0.16323338, 0.12525782, 0.1452774 ,
       0.22396071, 0.22071584, 0.20627521, 0.12446169, 0.13806368,
       0.12575695, 0.10507358, 0.15915516, 0.10267429, 0.21300447,
       0.17530631, 0.21292435, 0.11968918, 0.19720694, 0.21653189,
       0.17825394, 0.15240158, 0.20660377, 0.10816998, 0.17149013,
       0.16329951, 0.2075632 , 0.11708153, 0.16271592, 0.14173222,
       0.15500757, 0.21062325, 0.15772627, 0.15217788, 0.15932716,
       0.21039042, 0.16876814, 0.1906288 , 0.17310274, 0.16624777,
       0.1199342 , 0.14723545, 0.10709038, 0.15131676, 0.1319427 ,
       0.1350101 , 0.13328951, 0.14765146, 0.17086925, 0.1299283 ,
       0.15807041, 0.19759456, 0.11958537, 0.16837654, 0.14508722,
       0.12922512, 0.20143103, 0.12268311, 0.20749881, 0.17893705,
       0.11749122, 0.13102453, 0.13783963, 0.        , 0.08610645,
       0.12381409, 0.22293479, 0.14580292, 0.11985818, 0.11718292]), 'delta_distances': array([0., 0., 0., 0., 0., 0., 0., 0., 0., 0., 0., 0., 0., 0., 0., 0., 0.,
       0., 0., 0., 0., 0., 0., 0., 0., 0., 0., 0., 0., 0., 0., 0., 0., 0.,
       0., 0., 0., 0., 0., 0., 0., 0., 0., 0., 0., 0., 0., 0., 0., 0., 0.,
       0., 0., 0., 0., 0., 0., 0., 0., 0., 0., 0., 0., 0., 0., 0., 0., 0.,
       0., 0., 0., 0., 0., 0., 0., 0., 0., 0., 0., 0., 0., 0., 0., 0., 0.,
       0., 0., 0., 0., 0., 0., 0., 0., 0., 0., 0., 0., 0., 0., 0., 0., 0.,
       0., 0., 0., 0., 0., 0., 0., 0., 0., 0., 0., 0., 0., 0., 0., 0., 0.,
       0., 0., 0., 0., 0., 0., 0., 0., 0., 0., 0., 0., 0., 0., 0., 0., 0.,
       0., 0., 0., 0., 0., 0., 0., 0., 0., 0., 0., 0., 0., 0., 0., 0., 0.,
       0., 0., 0., 0., 0., 0., 0., 0., 0., 0., 0., 0., 0., 0., 0., 0., 0.,
       0., 0., 0., 0., 0., 0., 0., 0., 0., 0., 0., 0., 0., 0., 0., 0., 0.,
       0., 0., 0., 0., 0., 0., 0., 0., 0., 0., 0., 0., 0.]), 'locations': array([ 4,  3, 11,  4, 10,  4,  7,  5, 64, 10, 64,  0,  4,  9, 34,  5,  3,
        3,  0, 57, 38,  4,  4,  4, 58,  0,  8,  5, 60,  5,  3,  4, 17, 64,
        1,  8,  4,  3, 49,  9,  4,  3,  3,  2,  6,  6,  4,  4,  4, 53,  5,
       57, 12,  8,  0,  6,  5,  9,  1, 12, 32,  4,  4,  5, 21, 11,  4,  4,
        5,  4,  5,  6,  5, 60,  5, 13,  3,  6,  5,  4,  6,  4,  0,  5, 12,
        6,  7,  8,  4,  4, 63, 40,  9,  5,  7,  4, 61, 11, 63, 12,  9,  0,
       11,  5,  6,  5,  7,  6,  4, 64,  6,  8,  1,  4, 16,  3,  4,  4,  6,
        9,  0,  4,  5, 63,  4,  1,  3,  9,  1,  4,  4,  4,  6,  5,  4, 59,
        4,  3,  4,  4,  8, 12,  4, 12,  1,  5, 58, 14,  4,  3,  3,  4, 64,
        0,  4,  4, 56, 13,  4,  4,  5, 63, 18,  4,  2,  1,  5,  3,  3,  4,
        6,  3,  7,  4,  3,  4,  4,  4,  4,  5,  2,  0,  5,  8, 10,  8, 57,
        4,  4,  1, 10,  4,  6,  2,  6, 12, 64,  5,  4,  5])}, {'ts_index': 8, 'loc': 0, 'gap': 0.032055919505714126, 'distances': array([0.        , 0.22679818, 0.32376768, 0.33214014, 0.28545409,
       0.21463076, 0.2773735 , 0.16039157, 0.26915111, 0.20457834,
       0.29498706, 0.29214341, 0.18333304, 0.28108646, 0.32020167,
       0.25482995, 0.14838334, 0.24899081, 0.28579453, 0.13762096,
       0.29433035, 0.2780265 , 0.16290224, 0.30674204, 0.23715884,
       0.27235548, 0.23258532, 0.149341  , 0.22463703, 0.18510976,
       0.21673225, 0.16362932, 0.21788808, 0.20926744, 0.28047018,
       0.15049401, 0.23042642]), 'delta_distances': array([0., 0., 0., 0., 0., 0., 0., 0., 0., 0., 0., 0., 0., 0., 0., 0., 0.,
       0., 0., 0., 0., 0., 0., 0., 0., 0., 0., 0., 0., 0., 0., 0., 0., 0.,
       0., 0., 0.]), 'locations': array([ 0,  0, 56, 62,  0,  0, 28,  2,  1,  1,  0, 26,  0, 40,  0, 20,  2,
        0,  1,  0, 39, 64,  0, 59,  0,  0,  0,  2,  1,  0,  0,  2,  0,  0,
        0,  0,  0])}, {'ts_index': 136, 'loc': 1, 'gap': 0.05377138570645851, 'distances': array([0.15874202, 0.20663364, 0.24428247, 0.10580389, 0.08988351,
       0.25983143, 0.13297949, 0.18449876, 0.20100892, 0.28046516,
       0.20973759, 0.19465986, 0.25479621, 0.19428792, 0.15671914,
       0.27710926, 0.15831275, 0.16758757, 0.16567485, 0.10810367,
       0.        , 0.16998852, 0.14133343, 0.10862434, 0.15384345,
       0.14416774, 0.12835027]), 'delta_distances': array([0., 0., 0., 0., 0., 0., 0., 0., 0., 0., 0., 0., 0., 0., 0., 0., 0.,
       0., 0., 0., 0., 0., 0., 0., 0., 0., 0.]), 'locations': array([ 0,  3, 11,  1,  2, 34,  0,  6,  1, 35,  0,  0, 24,  2,  0, 38,  0,
        1,  3,  1,  1,  3,  4,  0,  4,  0,  1])}], 'clusters': array([1, 1, 1, 1, 1, 1, 1, 1, 2, 1, 3, 3, 0, 1, 1, 1, 1, 1, 3, 3, 0, 2,
       1, 1, 1, 3, 1, 1, 1, 1, 1, 1, 1, 3, 3, 1, 1, 1, 0, 1, 1, 1, 2, 1,
       1, 1, 1, 1, 1, 1, 1, 3, 1, 1, 3, 1, 1, 1, 1, 1, 0, 1, 1, 1, 1, 1,
       1, 1, 1, 1, 1, 1, 1, 1, 1, 2, 1, 1, 1, 1, 1, 3, 3, 1, 1, 1, 1, 1,
       1, 1, 2, 0, 1, 1, 1, 1, 1, 1, 3, 1, 1, 1, 1, 1, 1, 1, 1, 1, 1, 2,
       1, 1, 3, 1, 1, 1, 1, 1, 1, 1, 1, 1, 1, 3, 1, 1, 1, 1, 1, 1, 1, 1,
       1, 1, 1, 3, 3, 2, 1, 1, 1, 1, 1, 1, 3, 1, 2, 1, 1, 3, 1, 1, 2, 1,
       1, 1, 3, 1, 1, 1, 1, 3, 1, 1, 1, 3, 1, 1, 1, 1, 1, 1, 1, 1, 1, 1,
       1, 1, 1, 1, 1, 1, 1, 1, 1, 1, 1, 1, 2, 1, 1, 1, 1, 1, 1, 1, 3, 1,
       1, 1]), 'time': 22.00521755218506}
