lenSubsequence: 22{'RI': 0.5397487437185929, 'num_clusters': 2, 'uShapelets': [{'ts_index': 153, 'loc': 15, 'gap': 0.03846732805756009, 'distances': array([0.29284681, 0.24894354, 0.27094922, 0.23735057, 0.25505847,
       0.17839727, 0.30030715, 0.20616925, 0.32524262, 0.27584593,
       0.3132039 , 0.29019808, 0.2605539 , 0.27223681, 0.21354343,
       0.22886951, 0.18353223, 0.24647411, 0.27505493, 0.24061543,
       0.32339275, 0.34853741, 0.25320391, 0.29588699, 0.21729528,
       0.28207154, 0.28423444, 0.25659032, 0.29052382, 0.31849961,
       0.25135328, 0.22887437, 0.3060171 , 0.32909338, 0.35539067,
       0.18415888, 0.29594556, 0.22783309, 0.34402245, 0.34245068,
       0.27032137, 0.17367138, 0.2024767 , 0.19454877, 0.21713873,
       0.15411169, 0.31835984, 0.22154312, 0.21095147, 0.3016118 ,
       0.27293575, 0.26713836, 0.19570116, 0.31116229, 0.25371534,
       0.26052024, 0.32339873, 0.25454579, 0.20568507, 0.27233696,
       0.3190545 , 0.35871078, 0.19092534, 0.19881888, 0.21050493,
       0.24707988, 0.24531104, 0.21509596, 0.23256348, 0.25829635,
       0.22348878, 0.35405165, 0.23810831, 0.22545066, 0.18332374,
       0.23949203, 0.29010344, 0.16637401, 0.18846135, 0.2684763 ,
       0.28191296, 0.26249116, 0.24266807, 0.21216079, 0.2723231 ,
       0.3509851 , 0.29411641, 0.32435619, 0.24700468, 0.25407533,
       0.30125659, 0.33280946, 0.27011681, 0.25221261, 0.21012333,
       0.34261708, 0.25710793, 0.23740034, 0.32668637, 0.30827398,
       0.16539982, 0.2048907 , 0.1885115 , 0.19318036, 0.2243689 ,
       0.22600681, 0.2667541 , 0.19188736, 0.21720347, 0.24064888,
       0.19799704, 0.20442777, 0.24828442, 0.17924772, 0.21527562,
       0.25756889, 0.19547404, 0.19269573, 0.22842684, 0.20810528,
       0.20590272, 0.24115857, 0.18955276, 0.26495464, 0.2261782 ,
       0.22141309, 0.18755957, 0.21591145, 0.19774454, 0.18814425,
       0.12738965, 0.18451395, 0.23610828, 0.19852655, 0.21738708,
       0.23836768, 0.19518205, 0.23114198, 0.22689518, 0.166432  ,
       0.23210081, 0.18527292, 0.16556217, 0.19966144, 0.28327837,
       0.22563609, 0.2410417 , 0.23008078, 0.25210897, 0.23969158,
       0.20270498, 0.27132797, 0.20591222, 0.        , 0.2069961 ,
       0.24473203, 0.20822467, 0.20771365, 0.17768933, 0.29602326,
       0.26271346, 0.22457551, 0.24372611, 0.18329345, 0.20749044,
       0.22403123, 0.23022447, 0.25527273, 0.18554976, 0.24133939,
       0.17032336, 0.2598409 , 0.16363888, 0.23974915, 0.16429359,
       0.22875954, 0.18217768, 0.19486729, 0.18353043, 0.21220124,
       0.22643077, 0.25656146, 0.17580326, 0.15454469, 0.2412767 ,
       0.25861335, 0.27089418, 0.21685399, 0.18380777, 0.25519645,
       0.27734604, 0.20738473, 0.22183899, 0.20497541, 0.16693756,
       0.22979761, 0.2311808 , 0.19050685, 0.16002548, 0.1863454 ]), 'delta_distances': array([0., 0., 0., 0., 0., 0., 0., 0., 0., 0., 0., 0., 0., 0., 0., 0., 0.,
       0., 0., 0., 0., 0., 0., 0., 0., 0., 0., 0., 0., 0., 0., 0., 0., 0.,
       0., 0., 0., 0., 0., 0., 0., 0., 0., 0., 0., 0., 0., 0., 0., 0., 0.,
       0., 0., 0., 0., 0., 0., 0., 0., 0., 0., 0., 0., 0., 0., 0., 0., 0.,
       0., 0., 0., 0., 0., 0., 0., 0., 0., 0., 0., 0., 0., 0., 0., 0., 0.,
       0., 0., 0., 0., 0., 0., 0., 0., 0., 0., 0., 0., 0., 0., 0., 0., 0.,
       0., 0., 0., 0., 0., 0., 0., 0., 0., 0., 0., 0., 0., 0., 0., 0., 0.,
       0., 0., 0., 0., 0., 0., 0., 0., 0., 0., 0., 0., 0., 0., 0., 0., 0.,
       0., 0., 0., 0., 0., 0., 0., 0., 0., 0., 0., 0., 0., 0., 0., 0., 0.,
       0., 0., 0., 0., 0., 0., 0., 0., 0., 0., 0., 0., 0., 0., 0., 0., 0.,
       0., 0., 0., 0., 0., 0., 0., 0., 0., 0., 0., 0., 0., 0., 0., 0., 0.,
       0., 0., 0., 0., 0., 0., 0., 0., 0., 0., 0., 0., 0.]), 'locations': array([ 7, 12, 10, 11, 19,  7, 11, 10, 66, 33, 10,  7,  8, 10, 49,  7, 15,
       12, 14,  7, 53, 11,  9,  6,  3,  4, 24,  7, 10, 15, 11,  5, 10, 72,
       61, 19, 11, 10, 53, 37,  6, 10,  4, 10,  8, 13, 13,  8, 14,  7, 14,
        3, 19, 38,  9,  9, 66, 19,  7, 27, 28, 10, 10, 13, 38, 15, 11,  9,
       72, 16, 13, 15,  8, 11,  8, 13, 10, 11,  6, 11,  7, 11,  3, 14, 20,
       17, 73, 16, 11, 13, 10, 53, 19, 70, 12, 52, 66, 16, 64, 19, 11,  9,
       20, 15, 12, 13, 12, 12,  9, 10, 14, 11,  2,  9, 23, 10, 11, 11, 10,
       10,  4,  9, 13,  7, 14, 12, 11, 14, 10, 13, 13, 14, 12,  9, 13,  9,
        5, 13, 12, 14, 19, 12, 10, 19, 10, 17, 10, 17, 12,  4, 12, 18, 12,
       15, 12, 11,  6, 18, 11, 16, 72,  5, 14, 11,  3,  5,  8,  7, 12,  9,
       11, 11, 16, 13, 14, 14,  8,  9, 12, 11, 12,  7, 15,  9, 12,  9, 61,
       13,  6, 13, 10,  7, 12, 12, 13, 23,  6, 11, 17, 11])}], 'clusters': array([0, 1, 1, 1, 1, 1, 0, 1, 0, 1, 0, 0, 1, 1, 1, 1, 1, 1, 1, 1, 0, 0,
       1, 0, 1, 1, 0, 1, 0, 0, 1, 1, 0, 0, 0, 1, 0, 1, 0, 0, 1, 1, 1, 1,
       1, 1, 0, 1, 1, 0, 1, 1, 1, 0, 1, 1, 0, 1, 1, 1, 0, 0, 1, 1, 1, 1,
       1, 1, 1, 1, 1, 0, 1, 1, 1, 1, 0, 1, 1, 1, 1, 1, 1, 1, 1, 0, 0, 0,
       1, 1, 0, 0, 1, 1, 1, 0, 1, 1, 0, 0, 1, 1, 1, 1, 1, 1, 1, 1, 1, 1,
       1, 1, 1, 1, 1, 1, 1, 1, 1, 1, 1, 1, 1, 1, 1, 1, 1, 1, 1, 1, 1, 1,
       1, 1, 1, 1, 1, 1, 1, 1, 1, 1, 1, 1, 1, 1, 1, 1, 1, 1, 1, 1, 1, 1,
       1, 1, 1, 1, 1, 0, 1, 1, 1, 1, 1, 1, 1, 1, 1, 1, 1, 1, 1, 1, 1, 1,
       1, 1, 1, 1, 1, 1, 1, 1, 1, 1, 1, 1, 1, 1, 1, 1, 1, 1, 1, 1, 1, 1,
       1, 1]), 'time': 25.605223655700684}
lenSubsequence: 25{'RI': 0.5120100502512562, 'num_clusters': 2, 'uShapelets': [{'ts_index': 195, 'loc': 37, 'gap': 0.03715837694852342, 'distances': array([0.33458469, 0.26951283, 0.22704638, 0.3141959 , 0.28734749,
       0.34290504, 0.25144215, 0.24527198, 0.29582791, 0.21817813,
       0.31546299, 0.23784101, 0.37124183, 0.29238906, 0.25386247,
       0.30912148, 0.22605025, 0.25884194, 0.30680028, 0.25413841,
       0.3186535 , 0.37532188, 0.33552945, 0.23906408, 0.23316601,
       0.24492317, 0.19869146, 0.31478148, 0.26722321, 0.33463708,
       0.35387157, 0.31112593, 0.21868598, 0.24149289, 0.27678048,
       0.31007821, 0.31345044, 0.30438563, 0.29877133, 0.25665429,
       0.27416243, 0.23641536, 0.33838389, 0.21241447, 0.34578812,
       0.3221581 , 0.35530625, 0.2813592 , 0.18696908, 0.25836486,
       0.37901796, 0.22874796, 0.27621004, 0.2302324 , 0.23405455,
       0.21866449, 0.30021598, 0.3008838 , 0.15966568, 0.23667051,
       0.33505248, 0.30420551, 0.22793563, 0.2887451 , 0.20110181,
       0.22428739, 0.24490785, 0.21203595, 0.32310711, 0.25445256,
       0.31186147, 0.36426148, 0.24037001, 0.37932077, 0.29898692,
       0.25170458, 0.22992781, 0.28287972, 0.24724386, 0.26736133,
       0.36344242, 0.40642103, 0.3725746 , 0.27536116, 0.24439673,
       0.40705245, 0.30389619, 0.25859512, 0.16978138, 0.28039428,
       0.23588906, 0.32732789, 0.25989198, 0.21410814, 0.271798  ,
       0.35503518, 0.29953932, 0.22787418, 0.36362177, 0.25161484,
       0.29860878, 0.24741667, 0.20725637, 0.33192096, 0.33080515,
       0.25414331, 0.23223859, 0.30291518, 0.26815082, 0.26355845,
       0.28274491, 0.25200645, 0.27758541, 0.30771861, 0.22049971,
       0.35960804, 0.41118936, 0.31113469, 0.24944323, 0.25934973,
       0.23955109, 0.3272924 , 0.34821073, 0.31501656, 0.35821021,
       0.25620262, 0.36033209, 0.27895164, 0.3904675 , 0.25904724,
       0.20282487, 0.21849499, 0.27140703, 0.24531866, 0.22486109,
       0.26772273, 0.24270203, 0.23652292, 0.22139438, 0.19732689,
       0.24371901, 0.21350753, 0.24563151, 0.1937229 , 0.31815058,
       0.24316867, 0.31535473, 0.1658927 , 0.29419524, 0.165368  ,
       0.2648153 , 0.28080198, 0.37579574, 0.34103222, 0.25649333,
       0.29228335, 0.21555692, 0.21819673, 0.23724407, 0.21575093,
       0.23308907, 0.23450798, 0.1650737 , 0.24953083, 0.31050267,
       0.19944957, 0.17600506, 0.258452  , 0.35668081, 0.30846245,
       0.21252861, 0.33727536, 0.25854246, 0.27985853, 0.23120273,
       0.31259703, 0.31046192, 0.3674694 , 0.2720503 , 0.33062263,
       0.23515402, 0.26508551, 0.29656677, 0.34498341, 0.19851644,
       0.33682316, 0.25160929, 0.291747  , 0.25341683, 0.28957547,
       0.19897295, 0.26645269, 0.29736268, 0.26266048, 0.33738597,
       0.        , 0.23626991, 0.21490026, 0.18833947, 0.32721264]), 'delta_distances': array([0., 0., 0., 0., 0., 0., 0., 0., 0., 0., 0., 0., 0., 0., 0., 0., 0.,
       0., 0., 0., 0., 0., 0., 0., 0., 0., 0., 0., 0., 0., 0., 0., 0., 0.,
       0., 0., 0., 0., 0., 0., 0., 0., 0., 0., 0., 0., 0., 0., 0., 0., 0.,
       0., 0., 0., 0., 0., 0., 0., 0., 0., 0., 0., 0., 0., 0., 0., 0., 0.,
       0., 0., 0., 0., 0., 0., 0., 0., 0., 0., 0., 0., 0., 0., 0., 0., 0.,
       0., 0., 0., 0., 0., 0., 0., 0., 0., 0., 0., 0., 0., 0., 0., 0., 0.,
       0., 0., 0., 0., 0., 0., 0., 0., 0., 0., 0., 0., 0., 0., 0., 0., 0.,
       0., 0., 0., 0., 0., 0., 0., 0., 0., 0., 0., 0., 0., 0., 0., 0., 0.,
       0., 0., 0., 0., 0., 0., 0., 0., 0., 0., 0., 0., 0., 0., 0., 0., 0.,
       0., 0., 0., 0., 0., 0., 0., 0., 0., 0., 0., 0., 0., 0., 0., 0., 0.,
       0., 0., 0., 0., 0., 0., 0., 0., 0., 0., 0., 0., 0., 0., 0., 0., 0.,
       0., 0., 0., 0., 0., 0., 0., 0., 0., 0., 0., 0., 0.]), 'locations': array([32, 22, 37, 23, 43, 23, 35, 25, 19, 38, 13, 16, 16, 38, 62, 35, 23,
       23, 14, 11, 56, 14, 24, 28, 17, 17, 36, 29, 17, 21, 22, 19, 39, 19,
       22, 38, 30, 33,  6, 38, 29, 24, 17, 27, 22, 16, 23, 33, 23, 13, 28,
       13, 30, 38, 19, 26, 25, 50, 17, 36, 36, 17, 25, 31, 44, 43, 25, 24,
       30, 26, 42, 29, 21, 56, 32, 23, 25, 28, 20, 24, 34, 36, 38, 26, 48,
       28, 31, 35, 29, 25, 22,  4, 44, 28, 43, 24, 27, 45, 18, 31, 44, 17,
       34, 50, 18, 18, 40, 31, 21, 21, 38, 29, 15, 24, 42, 27, 46, 25, 29,
       36, 21, 25, 24, 15, 26, 20, 21, 35, 46, 20, 24, 22, 22, 28, 25, 20,
       21, 24, 37, 25, 29, 38, 26, 36, 17, 26, 16, 38, 20, 18, 26, 24, 13,
       42, 25, 21, 14, 38, 26, 24, 25, 17, 37, 24, 24, 21, 25, 17, 16, 24,
       29, 21, 30, 24, 24, 17, 26, 13, 24, 37, 19, 16, 23, 21, 39, 36, 15,
       23, 20, 16, 43, 24, 18, 38, 28, 37, 17, 27, 25, 14])}], 'clusters': array([0, 1, 1, 1, 1, 0, 1, 1, 1, 1, 1, 1, 0, 1, 1, 1, 1, 1, 1, 1, 1, 0,
       0, 1, 1, 1, 1, 1, 1, 0, 0, 1, 1, 1, 1, 1, 1, 1, 1, 1, 1, 1, 0, 1,
       0, 1, 0, 1, 1, 1, 0, 1, 1, 1, 1, 1, 1, 1, 1, 1, 0, 1, 1, 1, 1, 1,
       1, 1, 1, 1, 1, 0, 1, 0, 1, 1, 1, 1, 1, 1, 0, 0, 0, 1, 1, 0, 1, 1,
       1, 1, 1, 1, 1, 1, 1, 0, 1, 1, 0, 1, 1, 1, 1, 1, 1, 1, 1, 1, 1, 1,
       1, 1, 1, 1, 1, 0, 0, 1, 1, 1, 1, 1, 0, 1, 0, 1, 0, 1, 0, 1, 1, 1,
       1, 1, 1, 1, 1, 1, 1, 1, 1, 1, 1, 1, 1, 1, 1, 1, 1, 1, 1, 1, 0, 0,
       1, 1, 1, 1, 1, 1, 1, 1, 1, 1, 1, 1, 1, 1, 0, 1, 1, 0, 1, 1, 1, 1,
       1, 0, 1, 1, 1, 1, 1, 0, 1, 0, 1, 1, 1, 1, 1, 1, 1, 1, 0, 1, 1, 1,
       1, 1]), 'time': 23.980888843536377}
lenSubsequence: 28{'RI': 0.5662814070351759, 'num_clusters': 2, 'uShapelets': [{'ts_index': 142, 'loc': 4, 'gap': 0.03183728556007703, 'distances': array([0.26765946, 0.26614871, 0.29450125, 0.26221269, 0.30240338,
       0.24954861, 0.31659829, 0.29428488, 0.27161146, 0.31045771,
       0.31596564, 0.34737373, 0.3597756 , 0.31610193, 0.27353348,
       0.23610886, 0.20538052, 0.25762088, 0.24107297, 0.23149512,
       0.30983059, 0.29149695, 0.21198745, 0.22229397, 0.25247447,
       0.24697654, 0.31457411, 0.25146007, 0.29342243, 0.33874519,
       0.22843321, 0.23719467, 0.31138754, 0.3048785 , 0.33452108,
       0.26886797, 0.31507127, 0.20070533, 0.34168673, 0.36288521,
       0.26296143, 0.27147793, 0.22555519, 0.19459945, 0.21949967,
       0.16433566, 0.31379962, 0.265887  , 0.21777662, 0.29757379,
       0.29908971, 0.29908438, 0.23091763, 0.33527034, 0.25779059,
       0.24383222, 0.33613698, 0.28960742, 0.22578456, 0.28230181,
       0.315488  , 0.36867348, 0.21856913, 0.23400449, 0.2241497 ,
       0.27213251, 0.23132456, 0.22098787, 0.26224464, 0.32591561,
       0.2392007 , 0.32462378, 0.32368125, 0.29233565, 0.28856486,
       0.29597568, 0.26738204, 0.22911844, 0.2613744 , 0.26350028,
       0.34334783, 0.40865301, 0.29467487, 0.25007042, 0.27996   ,
       0.31510591, 0.3258509 , 0.28004023, 0.22347269, 0.26556889,
       0.24748187, 0.32724603, 0.27572982, 0.28029783, 0.25075658,
       0.27520136, 0.28570302, 0.28614551, 0.34252137, 0.35194989,
       0.21805406, 0.22059361, 0.18797898, 0.25922592, 0.24446124,
       0.25171676, 0.23502692, 0.22660981, 0.2460164 , 0.30520789,
       0.25639075, 0.2175983 , 0.28297836, 0.22759154, 0.25071092,
       0.25305222, 0.16840265, 0.21832689, 0.25118659, 0.23678156,
       0.27690125, 0.27892029, 0.24929766, 0.27551984, 0.23594564,
       0.19548775, 0.18013064, 0.24008563, 0.2107437 , 0.22590697,
       0.22428892, 0.20723605, 0.24176601, 0.20450315, 0.19912832,
       0.24820127, 0.17191551, 0.20256868, 0.30144818, 0.20832281,
       0.21831287, 0.25590094, 0.        , 0.24296673, 0.23329761,
       0.25842879, 0.25159948, 0.21656661, 0.20233175, 0.2546721 ,
       0.18443125, 0.24291993, 0.23510826, 0.24123975, 0.19118886,
       0.20832983, 0.2138507 , 0.23791143, 0.22658917, 0.21825226,
       0.24145692, 0.24533834, 0.27481346, 0.22646797, 0.2786951 ,
       0.26191418, 0.23618125, 0.23834482, 0.18179639, 0.24990371,
       0.22883963, 0.32988974, 0.22444902, 0.27647522, 0.20387445,
       0.20764502, 0.2113752 , 0.28052135, 0.17084628, 0.24742213,
       0.20609502, 0.22241796, 0.19080482, 0.17945007, 0.23663036,
       0.31187856, 0.26476806, 0.22864139, 0.21214732, 0.21399191,
       0.29045841, 0.23416819, 0.21385321, 0.19860802, 0.24343555,
       0.23043082, 0.22532678, 0.20853604, 0.13621639, 0.24152807]), 'delta_distances': array([0., 0., 0., 0., 0., 0., 0., 0., 0., 0., 0., 0., 0., 0., 0., 0., 0.,
       0., 0., 0., 0., 0., 0., 0., 0., 0., 0., 0., 0., 0., 0., 0., 0., 0.,
       0., 0., 0., 0., 0., 0., 0., 0., 0., 0., 0., 0., 0., 0., 0., 0., 0.,
       0., 0., 0., 0., 0., 0., 0., 0., 0., 0., 0., 0., 0., 0., 0., 0., 0.,
       0., 0., 0., 0., 0., 0., 0., 0., 0., 0., 0., 0., 0., 0., 0., 0., 0.,
       0., 0., 0., 0., 0., 0., 0., 0., 0., 0., 0., 0., 0., 0., 0., 0., 0.,
       0., 0., 0., 0., 0., 0., 0., 0., 0., 0., 0., 0., 0., 0., 0., 0., 0.,
       0., 0., 0., 0., 0., 0., 0., 0., 0., 0., 0., 0., 0., 0., 0., 0., 0.,
       0., 0., 0., 0., 0., 0., 0., 0., 0., 0., 0., 0., 0., 0., 0., 0., 0.,
       0., 0., 0., 0., 0., 0., 0., 0., 0., 0., 0., 0., 0., 0., 0., 0., 0.,
       0., 0., 0., 0., 0., 0., 0., 0., 0., 0., 0., 0., 0., 0., 0., 0., 0.,
       0., 0., 0., 0., 0., 0., 0., 0., 0., 0., 0., 0., 0.]), 'locations': array([ 8, 66,  7,  0, 10,  3, 12,  1,  4, 14, 46,  6,  2, 10, 32,  4,  6,
        4,  0,  2, 47,  5,  3,  7,  0,  0,  6,  2,  1,  6,  8,  1,  3,  8,
       55,  3,  2,  7, 33, 27,  1,  9,  1,  5,  3,  7,  7,  3,  6,  4,  4,
        0, 13, 21,  2,  4,  9,  9,  4, 24, 23, 66,  7,  7, 34,  7,  8,  0,
        9,  8,  8,  4,  9, 64,  7,  7,  5,  2,  9,  4,  3, 55,  0,  1,  4,
        3, 67, 13,  9,  7,  5, 47, 22, 63, 12,  8,  1,  9, 58,  7,  8,  2,
        9, 10,  4,  9, 11,  6,  8,  5,  5,  4,  0,  2, 15,  6,  5,  6,  3,
        4,  2,  2,  9,  1,  8,  4,  5,  4,  5,  9,  2,  7,  3,  7, 10,  0,
        1,  7,  8,  7, 13,  9,  4, 10,  4,  9,  4,  8,  7,  0,  5, 11,  8,
        5,  5,  6,  0, 10,  7, 10,  9,  0,  8,  7,  3,  1,  3,  0,  7,  5,
        7,  1,  9,  3,  7,  2,  1, 10,  9,  1,  6,  0,  9,  2,  7,  6,  0,
        1,  2,  6, 17,  6,  9,  9,  2, 10,  1,  8,  4,  0])}], 'clusters': array([1, 1, 1, 1, 0, 1, 0, 1, 1, 0, 0, 0, 0, 0, 1, 1, 1, 1, 1, 1, 0, 1,
       1, 1, 1, 1, 0, 1, 1, 0, 1, 1, 0, 0, 0, 1, 0, 1, 0, 0, 1, 1, 1, 1,
       1, 1, 0, 1, 1, 1, 1, 1, 1, 0, 1, 1, 0, 1, 1, 1, 0, 0, 1, 1, 1, 1,
       1, 1, 1, 0, 1, 0, 0, 1, 1, 1, 1, 1, 1, 1, 0, 0, 1, 1, 1, 0, 0, 1,
       1, 1, 1, 0, 1, 1, 1, 1, 1, 1, 0, 0, 1, 1, 1, 1, 1, 1, 1, 1, 1, 0,
       1, 1, 1, 1, 1, 1, 1, 1, 1, 1, 1, 1, 1, 1, 1, 1, 1, 1, 1, 1, 1, 1,
       1, 1, 1, 1, 1, 1, 1, 1, 1, 1, 1, 1, 1, 1, 1, 1, 1, 1, 1, 1, 1, 1,
       1, 1, 1, 1, 1, 1, 1, 1, 1, 1, 1, 1, 1, 1, 1, 1, 1, 0, 1, 1, 1, 1,
       1, 1, 1, 1, 1, 1, 1, 1, 1, 0, 1, 1, 1, 1, 1, 1, 1, 1, 1, 1, 1, 1,
       1, 1]), 'time': 22.358503818511963}
lenSubsequence: 31{'RI': 0.5819597989949749, 'num_clusters': 2, 'uShapelets': [{'ts_index': 110, 'loc': 10, 'gap': 0.03450175582214965, 'distances': array([0.23478404, 0.32560088, 0.30746005, 0.25999912, 0.36144688,
       0.25671968, 0.33046149, 0.2981764 , 0.31292963, 0.35658965,
       0.35533465, 0.38960162, 0.33062241, 0.31163661, 0.28975856,
       0.25383909, 0.23276366, 0.28618275, 0.3667224 , 0.33277919,
       0.39825644, 0.33692378, 0.25162457, 0.23402132, 0.31473082,
       0.33749274, 0.28939096, 0.27103169, 0.34766974, 0.33466946,
       0.37862245, 0.2663381 , 0.32182483, 0.36607536, 0.39977325,
       0.27644162, 0.29749895, 0.27891658, 0.37132795, 0.36032704,
       0.23505103, 0.32503485, 0.30581004, 0.25271424, 0.31345215,
       0.29972158, 0.34531176, 0.33353197, 0.26647319, 0.36649987,
       0.34745044, 0.38322913, 0.27314936, 0.38192501, 0.36136457,
       0.3093945 , 0.33012429, 0.25972691, 0.26425914, 0.30754732,
       0.35151963, 0.40659478, 0.29626612, 0.2370922 , 0.36794892,
       0.2796038 , 0.27699067, 0.2834204 , 0.31200815, 0.35292547,
       0.21017275, 0.37909411, 0.3307848 , 0.35931521, 0.3289544 ,
       0.38671437, 0.25792629, 0.28203124, 0.26400915, 0.32900057,
       0.2584479 , 0.4336442 , 0.38089968, 0.26730067, 0.29543907,
       0.31390879, 0.38957121, 0.2794709 , 0.25442578, 0.33003045,
       0.34124903, 0.39328301, 0.33787237, 0.24092656, 0.29127454,
       0.38284936, 0.32453815, 0.2665603 , 0.37702528, 0.37719656,
       0.28639949, 0.25571053, 0.2587485 , 0.2891037 , 0.31867843,
       0.30825161, 0.27190633, 0.235599  , 0.26120532, 0.37573522,
       0.        , 0.30447359, 0.31978382, 0.21074487, 0.22166464,
       0.32818335, 0.24351682, 0.22816343, 0.30060842, 0.36241313,
       0.24136742, 0.27015666, 0.26741535, 0.37291727, 0.29063158,
       0.28871001, 0.27238036, 0.28274138, 0.26907513, 0.32822095,
       0.25270598, 0.20896373, 0.28133475, 0.21004849, 0.30315535,
       0.328135  , 0.30424821, 0.28194319, 0.27500612, 0.27161955,
       0.26570282, 0.25504216, 0.27095244, 0.2493302 , 0.33403051,
       0.33097113, 0.36491547, 0.22340523, 0.28565987, 0.30879763,
       0.27973128, 0.26881308, 0.31262287, 0.29832074, 0.27550653,
       0.28172284, 0.31852261, 0.2504381 , 0.23821241, 0.30876126,
       0.30807312, 0.31221333, 0.36038456, 0.26486666, 0.29090268,
       0.33261794, 0.32172497, 0.30883917, 0.2394295 , 0.29856777,
       0.24464681, 0.35931454, 0.22617831, 0.30454991, 0.28364508,
       0.32547447, 0.2627974 , 0.33042787, 0.27181943, 0.29044577,
       0.24401744, 0.30520647, 0.26900119, 0.25388251, 0.31170286,
       0.36302635, 0.35653673, 0.25168919, 0.2864434 , 0.28360062,
       0.27683951, 0.26033071, 0.28225015, 0.22002798, 0.24784333,
       0.25977374, 0.30309278, 0.27839055, 0.25811207, 0.30248819]), 'delta_distances': array([0., 0., 0., 0., 0., 0., 0., 0., 0., 0., 0., 0., 0., 0., 0., 0., 0.,
       0., 0., 0., 0., 0., 0., 0., 0., 0., 0., 0., 0., 0., 0., 0., 0., 0.,
       0., 0., 0., 0., 0., 0., 0., 0., 0., 0., 0., 0., 0., 0., 0., 0., 0.,
       0., 0., 0., 0., 0., 0., 0., 0., 0., 0., 0., 0., 0., 0., 0., 0., 0.,
       0., 0., 0., 0., 0., 0., 0., 0., 0., 0., 0., 0., 0., 0., 0., 0., 0.,
       0., 0., 0., 0., 0., 0., 0., 0., 0., 0., 0., 0., 0., 0., 0., 0., 0.,
       0., 0., 0., 0., 0., 0., 0., 0., 0., 0., 0., 0., 0., 0., 0., 0., 0.,
       0., 0., 0., 0., 0., 0., 0., 0., 0., 0., 0., 0., 0., 0., 0., 0., 0.,
       0., 0., 0., 0., 0., 0., 0., 0., 0., 0., 0., 0., 0., 0., 0., 0., 0.,
       0., 0., 0., 0., 0., 0., 0., 0., 0., 0., 0., 0., 0., 0., 0., 0., 0.,
       0., 0., 0., 0., 0., 0., 0., 0., 0., 0., 0., 0., 0., 0., 0., 0., 0.,
       0., 0., 0., 0., 0., 0., 0., 0., 0., 0., 0., 0., 0.]), 'locations': array([ 5,  6, 16,  8, 10,  6, 17,  6,  4,  9,  0,  0,  1, 12, 18, 10,  8,
        7,  0,  1, 46,  4,  2,  6,  0,  0,  5,  4, 57,  6,  7,  1, 18,  1,
       55, 12,  5,  6, 63, 13,  5,  0,  0,  8,  6,  7,  6, 10,  7, 53,  7,
       52, 14, 11,  1,  4,  6, 12,  0, 15, 21, 64,  3, 10, 25, 12,  4,  5,
        7,  4,  6,  6,  6, 63,  8, 61,  6,  9,  5, 11,  7,  0,  1,  7, 22,
        1, 13,  8,  7,  4,  5, 42, 12, 63, 12,  5,  3, 14, 57, 16,  4,  2,
       13,  7,  5,  8,  8,  5,  8,  8, 10,  5,  0,  5, 16, 10,  8,  7,  5,
        1,  2,  6,  8, 38,  5,  2,  4, 18,  2,  9,  6,  7,  7,  6, 10,  2,
        0,  6,  7,  7,  7, 19,  3, 14,  3, 10,  3, 13,  5,  3,  5, 11,  5,
        5,  5,  6,  0, 17,  4,  9,  8,  0, 19,  4,  1,  2,  6,  3,  6,  7,
        6,  0,  9,  6,  6,  1,  7,  2,  8,  7,  2,  0,  5,  2,  4,  5, 54,
        4,  2,  0, 14,  5,  5, 12, 13, 13,  2,  5,  7,  8])}], 'clusters': array([1, 1, 1, 1, 0, 1, 1, 1, 1, 0, 1, 0, 1, 1, 1, 1, 1, 1, 0, 1, 0, 1,
       1, 1, 1, 1, 1, 1, 1, 1, 0, 1, 1, 0, 0, 1, 1, 1, 0, 0, 1, 1, 1, 1,
       1, 1, 1, 1, 1, 0, 1, 0, 1, 0, 0, 1, 1, 1, 1, 1, 1, 0, 1, 1, 0, 1,
       1, 1, 1, 1, 1, 0, 1, 0, 1, 0, 1, 1, 1, 1, 1, 0, 0, 1, 1, 1, 0, 1,
       1, 1, 1, 0, 1, 1, 1, 0, 1, 1, 0, 0, 1, 1, 1, 1, 1, 1, 1, 1, 1, 0,
       1, 1, 1, 1, 1, 1, 1, 1, 1, 0, 1, 1, 1, 0, 1, 1, 1, 1, 1, 1, 1, 1,
       1, 1, 1, 1, 1, 1, 1, 1, 1, 1, 1, 1, 1, 1, 0, 1, 1, 1, 1, 1, 1, 1,
       1, 1, 1, 1, 1, 1, 1, 1, 0, 1, 1, 1, 1, 1, 1, 1, 1, 0, 1, 1, 1, 1,
       1, 1, 1, 1, 1, 1, 1, 1, 1, 0, 0, 1, 1, 1, 1, 1, 1, 1, 1, 1, 1, 1,
       1, 1]), 'time': 20.805790424346924}
