lenSubsequence: 22{'RI': 0.6375879396984925, 'num_clusters': 4, 'uShapelets': [{'ts_index': 53, 'loc': 4, 'gap': 0.05127378945857876, 'distances': array([0.15475028, 0.15364689, 0.07378681, 0.14384807, 0.13688789,
       0.1452783 , 0.09324322, 0.13365778, 0.14980465, 0.0446851 ,
       0.18650374, 0.17010255, 0.18988455, 0.07181611, 0.060188  ,
       0.08591956, 0.16282507, 0.16852014, 0.17598888, 0.15701093,
       0.16762162, 0.15912298, 0.15555317, 0.13224469, 0.17354676,
       0.1498075 , 0.07333209, 0.13797369, 0.149879  , 0.151821  ,
       0.15557041, 0.15225372, 0.05899487, 0.18700259, 0.18023247,
       0.08942778, 0.16467004, 0.14048068, 0.18067889, 0.05264841,
       0.14889485, 0.21080678, 0.17168963, 0.1632964 , 0.13879148,
       0.14790168, 0.14669553, 0.07820179, 0.12211115, 0.17195835,
       0.12406472, 0.17183933, 0.05077698, 0.        , 0.19113682,
       0.11461518, 0.15099505, 0.05649572, 0.17763648, 0.04694623,
       0.15301683, 0.16136452, 0.15771615, 0.13007497, 0.06171206,
       0.06686674, 0.15667456, 0.18506002, 0.13744925, 0.13353926,
       0.14583308, 0.12183712, 0.13330894, 0.1498092 , 0.161807  ,
       0.15596492, 0.15280934, 0.09030721, 0.14117553, 0.13004897,
       0.1398759 , 0.10376964, 0.19656679, 0.14605503, 0.04873378,
       0.11631499, 0.12217672, 0.06033406, 0.12677807, 0.14637657,
       0.14434145, 0.16188131, 0.06833366, 0.15914425, 0.06178288,
       0.12240198, 0.16456427, 0.05083568, 0.16689312, 0.08454814,
       0.06618681, 0.15341063, 0.07513591, 0.1246861 , 0.15229487,
       0.17087176, 0.0502202 , 0.0595543 , 0.16125322, 0.17068874,
       0.07974899, 0.07865834, 0.16351542, 0.14943814, 0.05935114,
       0.14657831, 0.13695435, 0.14488493, 0.15952526, 0.0347262 ,
       0.16919669, 0.17712888, 0.15035935, 0.14717493, 0.15844685,
       0.18239491, 0.15547299, 0.13385245, 0.19275582, 0.14688264,
       0.1760716 , 0.14466955, 0.14468762, 0.16019489, 0.14586407,
       0.1537193 , 0.15827239, 0.15290385, 0.08773761, 0.16959554,
       0.05898214, 0.07162158, 0.15537628, 0.04865452, 0.21287165,
       0.15951801, 0.17722647, 0.10325519, 0.15161697, 0.19476712,
       0.14375417, 0.11281182, 0.14237905, 0.23519349, 0.13547545,
       0.13746794, 0.1403061 , 0.05180923, 0.15754811, 0.15283151,
       0.16313227, 0.18708074, 0.13413755, 0.14914952, 0.16752607,
       0.19599556, 0.1645046 , 0.17464704, 0.15199129, 0.12337755,
       0.10376597, 0.17076072, 0.07041675, 0.16358895, 0.14783085,
       0.18127961, 0.13909969, 0.16058138, 0.16616912, 0.08609907,
       0.15261401, 0.18176958, 0.12580196, 0.11340678, 0.04651393,
       0.05248386, 0.17960059, 0.14811568, 0.1366766 , 0.157349  ,
       0.03380138, 0.17750954, 0.09848007, 0.25476132, 0.08430627,
       0.07077096, 0.1646787 , 0.12620464, 0.17033148, 0.14633254]), 'delta_distances': array([0., 0., 0., 0., 0., 0., 0., 0., 0., 0., 0., 0., 0., 0., 0., 0., 0.,
       0., 0., 0., 0., 0., 0., 0., 0., 0., 0., 0., 0., 0., 0., 0., 0., 0.,
       0., 0., 0., 0., 0., 0., 0., 0., 0., 0., 0., 0., 0., 0., 0., 0., 0.,
       0., 0., 0., 0., 0., 0., 0., 0., 0., 0., 0., 0., 0., 0., 0., 0., 0.,
       0., 0., 0., 0., 0., 0., 0., 0., 0., 0., 0., 0., 0., 0., 0., 0., 0.,
       0., 0., 0., 0., 0., 0., 0., 0., 0., 0., 0., 0., 0., 0., 0., 0., 0.,
       0., 0., 0., 0., 0., 0., 0., 0., 0., 0., 0., 0., 0., 0., 0., 0., 0.,
       0., 0., 0., 0., 0., 0., 0., 0., 0., 0., 0., 0., 0., 0., 0., 0., 0.,
       0., 0., 0., 0., 0., 0., 0., 0., 0., 0., 0., 0., 0., 0., 0., 0., 0.,
       0., 0., 0., 0., 0., 0., 0., 0., 0., 0., 0., 0., 0., 0., 0., 0., 0.,
       0., 0., 0., 0., 0., 0., 0., 0., 0., 0., 0., 0., 0., 0., 0., 0., 0.,
       0., 0., 0., 0., 0., 0., 0., 0., 0., 0., 0., 0., 0.]), 'locations': array([ 1,  0,  3,  0,  1,  1,  0,  0,  0,  4, 45, 65, 71,  2,  6,  1, 72,
        0, 69, 64, 22,  1, 73,  1, 64, 66,  2,  1, 55,  1,  1, 73,  4, 47,
       65,  3, 72,  0, 23,  2,  1, 43, 71,  0,  2,  1,  1,  0,  0, 38,  1,
       25,  5,  4, 66,  2,  1,  3, 64,  5, 22, 73, 72,  1,  6,  4,  1,  0,
        1,  0,  1,  1,  0,  5,  1,  3,  1,  2,  1,  1,  2,  2, 66,  2,  5,
        1,  2,  4,  0, 72,  0, 21,  4,  1,  1,  1,  0,  6, 69,  0,  3, 64,
        4,  1,  1, 73,  2,  2, 72,  0,  2,  3, 66,  0,  6,  0,  1,  1,  1,
        3, 64,  0, 73, 35,  1, 67,  0,  3,  0,  1, 73,  1,  0,  1,  1, 57,
       65,  1,  0, 73,  3,  2,  0,  4, 50, 73, 39,  0,  0, 36,  0,  1,  0,
       54,  1,  1, 56,  5,  1,  0,  1, 34,  3, 72, 73, 47, 72,  0,  0,  1,
        2, 73,  2, 73,  0,  0,  1, 72,  2,  2,  0, 64,  1,  0,  4,  2, 34,
        1,  1,  0,  4, 73,  2,  6,  1,  3, 73,  2,  0, 73])}, {'ts_index': 55, 'loc': 3, 'gap': 0.05731158994047636, 'distances': array([0.12198195, 0.1049899 , 0.12529847, 0.17862532, 0.10884961,
       0.12236523, 0.09628306, 0.11483662, 0.13607719, 0.26607972,
       0.28276467, 0.1343289 , 0.13814347, 0.12798926, 0.20015332,
       0.15125953, 0.25864965, 0.09957053, 0.14031092, 0.08061408,
       0.19334973, 0.2331809 , 0.09927753, 0.10089532, 0.10033485,
       0.10773707, 0.14339397, 0.15637668, 0.25238192, 0.06944935,
       0.14100193, 0.09709973, 0.27891742, 0.11516206, 0.29931072,
       0.14129037, 0.13199924, 0.10703628, 0.08374826, 0.1101947 ,
       0.11312802, 0.16593749, 0.09565403, 0.24027023, 0.28437807,
       0.        , 0.09706625, 0.28266157, 0.23510548, 0.14960538,
       0.17518483, 0.14226655, 0.11570697, 0.14305398, 0.11412579,
       0.09235726, 0.13155282, 0.07383902, 0.08798422, 0.11858992,
       0.11902418, 0.11383139, 0.11609936, 0.10161418, 0.09321863,
       0.07967571, 0.09526759, 0.11256828, 0.26248254, 0.11134405,
       0.10078961, 0.0875535 , 0.12584928, 0.12327461, 0.12836276,
       0.25418806, 0.13315464, 0.10532293, 0.13274859, 0.1458808 ,
       0.09992016, 0.20247083, 0.18313983, 0.10234665, 0.14052747,
       0.14035939, 0.14120435, 0.26350574, 0.11171709, 0.13141387,
       0.08091537, 0.10600173, 0.14582872, 0.27291526, 0.13375436,
       0.14713282, 0.15637135, 0.12549698, 0.20967225, 0.14077323,
       0.18277186, 0.20791582, 0.10429577, 0.12898685, 0.08967644,
       0.10933684, 0.09479095, 0.12126593, 0.17683761, 0.17867195,
       0.13227021, 0.13250417, 0.12048321, 0.09688049, 0.17918057,
       0.11813962, 0.1507271 , 0.17140693, 0.13868764, 0.11571927,
       0.13578975, 0.13409653, 0.12770358, 0.28698421, 0.0892142 ,
       0.10335331, 0.14463823, 0.12797557, 0.10010141, 0.12528605,
       0.11735465, 0.16290569, 0.12290718, 0.11896856, 0.28561663,
       0.11887911, 0.13977442, 0.13445373, 0.10227879, 0.1060489 ,
       0.15137258, 0.11792886, 0.12080229, 0.13418696, 0.11601151,
       0.10980999, 0.14761519, 0.11070382, 0.12817855, 0.21573979,
       0.08829332, 0.11082324, 0.17636693, 0.11215333, 0.09770804,
       0.12879359, 0.14062349, 0.05725725, 0.25290133, 0.12122648,
       0.14840544, 0.09678421, 0.13758571, 0.15189583]), 'delta_distances': array([0., 0., 0., 0., 0., 0., 0., 0., 0., 0., 0., 0., 0., 0., 0., 0., 0.,
       0., 0., 0., 0., 0., 0., 0., 0., 0., 0., 0., 0., 0., 0., 0., 0., 0.,
       0., 0., 0., 0., 0., 0., 0., 0., 0., 0., 0., 0., 0., 0., 0., 0., 0.,
       0., 0., 0., 0., 0., 0., 0., 0., 0., 0., 0., 0., 0., 0., 0., 0., 0.,
       0., 0., 0., 0., 0., 0., 0., 0., 0., 0., 0., 0., 0., 0., 0., 0., 0.,
       0., 0., 0., 0., 0., 0., 0., 0., 0., 0., 0., 0., 0., 0., 0., 0., 0.,
       0., 0., 0., 0., 0., 0., 0., 0., 0., 0., 0., 0., 0., 0., 0., 0., 0.,
       0., 0., 0., 0., 0., 0., 0., 0., 0., 0., 0., 0., 0., 0., 0., 0., 0.,
       0., 0., 0., 0., 0., 0., 0., 0., 0., 0., 0., 0., 0., 0., 0., 0., 0.,
       0., 0., 0., 0., 0., 0., 0., 0., 0., 0., 0.]), 'locations': array([ 2,  1,  1,  2,  2,  1,  0,  1,  1, 65, 71,  2,  1,  1,  0,  0, 24,
        2,  2,  2,  0, 66,  1,  2,  1,  2,  2,  2,  0,  4,  1,  0, 23,  2,
        0,  0,  1,  3,  2,  2,  2,  0,  2,  0, 66,  3,  2, 65, 23,  2,  2,
        2,  2,  1,  2,  1,  3,  2,  0,  6,  2,  4,  1,  3,  2,  2,  3,  3,
        0,  3,  3,  3,  2,  2,  1, 23,  2,  2,  1,  1,  2, 65, 10,  2,  2,
        2,  1, 67,  2,  1,  2,  2,  2, 65,  1,  2,  0,  2,  0,  1,  3,  1,
        2,  2,  2,  2,  2,  3,  0,  1,  2,  1,  2,  1,  0,  3,  2,  2,  1,
        1,  6,  3,  1,  4,  2,  2,  0,  1,  2,  3,  1,  4,  2,  2,  0,  2,
        1,  1,  2,  3,  2,  2,  1,  2,  2,  2,  8,  3,  1,  0,  2,  2,  2,
        2,  2,  1,  1,  3,  7,  2,  0,  3,  2,  2])}, {'ts_index': 125, 'loc': 4, 'gap': 0.15540781457424135, 'distances': array([0.09102165, 0.20923402, 0.0957222 , 0.35219495, 0.14956727,
       0.07548656, 0.09814906, 0.31209389, 0.10701508, 0.31064052,
       0.08493128, 0.08623462, 0.28110278, 0.06270293, 0.29803052,
       0.12574241, 0.0759295 , 0.13969564, 0.06650407, 0.        ,
       0.13280863, 0.07019492, 0.08751892, 0.05413619, 0.09877203,
       0.05180359, 0.06591592, 0.07571634]), 'delta_distances': array([0., 0., 0., 0., 0., 0., 0., 0., 0., 0., 0., 0., 0., 0., 0., 0., 0.,
       0., 0., 0., 0., 0., 0., 0., 0., 0., 0., 0.]), 'locations': array([ 3, 12,  4, 39,  6,  3,  5,  0,  5,  0,  0,  4,  0,  3,  0,  5, 21,
        0,  5,  4, 24, 10,  5,  5, 15,  1,  4, 14])}], 'clusters': array([2, 2, 1, 2, 2, 2, 2, 2, 2, 1, 2, 3, 3, 1, 1, 2, 2, 2, 3, 2, 0, 2,
       2, 2, 3, 3, 1, 2, 2, 2, 2, 2, 1, 2, 3, 2, 2, 2, 0, 1, 2, 3, 2, 2,
       2, 2, 2, 1, 2, 2, 2, 0, 1, 1, 3, 2, 2, 1, 3, 1, 0, 2, 2, 2, 1, 1,
       2, 2, 2, 2, 2, 2, 2, 2, 2, 2, 2, 2, 2, 2, 2, 2, 3, 2, 1, 2, 2, 1,
       2, 2, 2, 0, 1, 2, 1, 2, 2, 1, 2, 2, 1, 3, 1, 3, 2, 2, 1, 1, 2, 2,
       1, 1, 3, 2, 1, 2, 2, 2, 2, 1, 3, 2, 2, 2, 2, 3, 2, 3, 3, 2, 2, 2,
       2, 2, 2, 2, 3, 2, 2, 2, 1, 1, 2, 1, 3, 2, 2, 2, 2, 2, 2, 2, 2, 3,
       2, 2, 2, 1, 2, 2, 2, 2, 2, 2, 2, 3, 2, 2, 2, 2, 2, 2, 1, 2, 2, 2,
       2, 2, 2, 2, 2, 3, 2, 2, 1, 1, 2, 2, 2, 2, 1, 2, 2, 3, 2, 1, 2, 2,
       2, 2]), 'time': 40.461650371551514}
lenSubsequence: 25{'RI': 0.560251256281407, 'num_clusters': 3, 'uShapelets': [{'ts_index': 169, 'loc': 1, 'gap': 0.06507088470529065, 'distances': array([0.07921039, 0.1395954 , 0.13543096, 0.1066891 , 0.15217633,
       0.12460098, 0.14706051, 0.11404553, 0.07143353, 0.11104552,
       0.14765007, 0.25729835, 0.24722454, 0.14372043, 0.1340973 ,
       0.12332721, 0.13526417, 0.1560756 , 0.24908774, 0.2035003 ,
       0.2257308 , 0.09094024, 0.17040325, 0.09152098, 0.2297412 ,
       0.23898778, 0.13735651, 0.13349574, 0.15274318, 0.12138322,
       0.13602816, 0.16189655, 0.12605361, 0.12803498, 0.26643308,
       0.09888863, 0.17545548, 0.1161597 , 0.24771939, 0.10869382,
       0.08757552, 0.28358946, 0.2025098 , 0.09763558, 0.13275737,
       0.12955442, 0.11227097, 0.13235882, 0.08250826, 0.22016737,
       0.0671949 , 0.23516762, 0.11728059, 0.11528394, 0.2718206 ,
       0.0912092 , 0.09946252, 0.12205523, 0.25783185, 0.11915498,
       0.21865552, 0.16018898, 0.20663755, 0.1073563 , 0.13400947,
       0.13007047, 0.14228071, 0.17745518, 0.08805437, 0.10912614,
       0.08789052, 0.0899203 , 0.09649293, 0.08225058, 0.13408134,
       0.08535712, 0.10839986, 0.12019349, 0.11102979, 0.09692416,
       0.0681447 , 0.13770843, 0.27856012, 0.10605402, 0.13205226,
       0.14002316, 0.13644675, 0.13617187, 0.11523484, 0.14261484,
       0.11370037, 0.23034699, 0.121825  , 0.11729514, 0.12161012,
       0.06581934, 0.06731854, 0.11373198, 0.20787338, 0.08995846,
       0.13288855, 0.21900886, 0.13123181, 0.15317158, 0.08395611,
       0.17199284, 0.12023635, 0.10924587, 0.16157417, 0.09126859,
       0.12533894, 0.11349525, 0.25241629, 0.07430497, 0.13881232,
       0.04804266, 0.09471337, 0.05955664, 0.18439843, 0.12194819,
       0.24858808, 0.16128099, 0.13881116, 0.18881871, 0.09519287,
       0.27060778, 0.09768667, 0.20076659, 0.22640475, 0.09484889,
       0.13579562, 0.08529304, 0.06929716, 0.12521642, 0.0937374 ,
       0.22157723, 0.23035838, 0.07981915, 0.13931884, 0.11416159,
       0.10650963, 0.14054445, 0.14126814, 0.12678372, 0.2293455 ,
       0.08989326, 0.09119583, 0.1472513 , 0.06857314, 0.17964851,
       0.06578013, 0.10073666, 0.07186851, 0.30739484, 0.0762952 ,
       0.07479241, 0.20353111, 0.1243711 , 0.09680412, 0.12463408,
       0.07824566, 0.13493082, 0.12699492, 0.15196683, 0.16802787,
       0.2658162 , 0.15783533, 0.14718366, 0.07775669, 0.        ,
       0.14037246, 0.11258308, 0.1502968 , 0.14769464, 0.12225255,
       0.15555698, 0.05932929, 0.11976098, 0.08042959, 0.13327782,
       0.1270042 , 0.2459832 , 0.06867512, 0.15685436, 0.12428925,
       0.11719175, 0.22537195, 0.10528491, 0.12968121, 0.1239787 ,
       0.1291217 , 0.17057012, 0.07038128, 0.28066284, 0.13240821,
       0.11920626, 0.21466463, 0.14186525, 0.14775206, 0.1812141 ]), 'delta_distances': array([0., 0., 0., 0., 0., 0., 0., 0., 0., 0., 0., 0., 0., 0., 0., 0., 0.,
       0., 0., 0., 0., 0., 0., 0., 0., 0., 0., 0., 0., 0., 0., 0., 0., 0.,
       0., 0., 0., 0., 0., 0., 0., 0., 0., 0., 0., 0., 0., 0., 0., 0., 0.,
       0., 0., 0., 0., 0., 0., 0., 0., 0., 0., 0., 0., 0., 0., 0., 0., 0.,
       0., 0., 0., 0., 0., 0., 0., 0., 0., 0., 0., 0., 0., 0., 0., 0., 0.,
       0., 0., 0., 0., 0., 0., 0., 0., 0., 0., 0., 0., 0., 0., 0., 0., 0.,
       0., 0., 0., 0., 0., 0., 0., 0., 0., 0., 0., 0., 0., 0., 0., 0., 0.,
       0., 0., 0., 0., 0., 0., 0., 0., 0., 0., 0., 0., 0., 0., 0., 0., 0.,
       0., 0., 0., 0., 0., 0., 0., 0., 0., 0., 0., 0., 0., 0., 0., 0., 0.,
       0., 0., 0., 0., 0., 0., 0., 0., 0., 0., 0., 0., 0., 0., 0., 0., 0.,
       0., 0., 0., 0., 0., 0., 0., 0., 0., 0., 0., 0., 0., 0., 0., 0., 0.,
       0., 0., 0., 0., 0., 0., 0., 0., 0., 0., 0., 0., 0.]), 'locations': array([ 1,  1,  3,  0,  2,  1,  0,  0,  0,  4,  0, 62, 70,  1,  5,  1,  0,
        0, 69,  0, 22,  1,  1,  1,  0, 63,  2,  1,  1,  1,  1,  1,  4,  1,
       56,  3,  0,  0, 22,  3,  1, 42,  0,  0,  2,  1,  1,  0,  1,  0,  1,
       24,  5,  4, 63,  2,  1,  3, 62,  5, 21,  1,  1,  1,  7,  4,  1,  1,
        1,  1,  2,  1,  0,  0,  1,  2,  0,  2,  1,  1,  2,  2, 60,  2,  5,
        2,  2,  4,  1,  1,  0, 21,  4,  1,  1,  1,  0,  6,  0,  0,  3, 58,
        4,  2,  1,  1,  2,  2,  1,  0,  3,  3, 65,  1,  7,  0,  1,  1,  0,
        3, 62,  1,  2,  0,  1,  0,  0,  2,  0,  1,  1,  1,  0,  2,  2, 54,
       64,  1,  0,  1,  3,  3,  1,  4,  0,  2,  0,  1,  0,  0,  0,  1,  0,
       53,  1,  1,  0,  5,  0,  1,  2,  0,  3,  1,  1, 44,  1,  0,  0,  1,
        2,  1,  2,  1,  0,  1,  1,  1,  2,  2,  0, 52,  1,  1,  3,  2,  1,
        1,  1,  0,  4,  0,  2,  6,  1,  3,  0,  2,  1,  1])}, {'ts_index': 19, 'loc': 0, 'gap': 0.06659679700042856, 'distances': array([0.17687475, 0.25130884, 0.10160676, 0.        , 0.26768744,
       0.14446324, 0.13646373, 0.14419001, 0.2854697 , 0.18627945,
       0.06245095, 0.25061889, 0.21029017, 0.20463587, 0.24856091,
       0.1760081 , 0.15000433, 0.26761707, 0.09742932, 0.13178983,
       0.20686962, 0.17794877, 0.10100045, 0.1343328 , 0.11574544,
       0.07747958, 0.09262217, 0.18804494, 0.09918777, 0.16588023,
       0.10728035, 0.12563698, 0.14320491, 0.1118645 ]), 'delta_distances': array([0., 0., 0., 0., 0., 0., 0., 0., 0., 0., 0., 0., 0., 0., 0., 0., 0.,
       0., 0., 0., 0., 0., 0., 0., 0., 0., 0., 0., 0., 0., 0., 0., 0., 0.]), 'locations': array([ 0, 13,  0,  0, 33,  0,  0,  0, 32,  0,  0, 65,  0,  1, 23,  0,  0,
       23,  0,  0,  0,  0,  0,  4,  0,  0,  0,  4,  0,  0,  0,  0,  6,  0])}], 'clusters': array([1, 1, 1, 1, 1, 1, 1, 1, 1, 1, 1, 2, 0, 1, 1, 1, 1, 1, 2, 2, 0, 1,
       1, 1, 2, 2, 1, 1, 1, 1, 1, 1, 1, 1, 2, 1, 1, 1, 0, 1, 1, 2, 1, 1,
       1, 1, 1, 1, 1, 2, 1, 0, 1, 1, 2, 1, 1, 1, 2, 1, 0, 1, 2, 1, 1, 1,
       1, 1, 1, 1, 1, 1, 1, 1, 1, 1, 1, 1, 1, 1, 1, 1, 2, 1, 1, 1, 1, 1,
       1, 1, 1, 0, 1, 1, 1, 1, 1, 1, 2, 1, 1, 2, 1, 1, 1, 1, 1, 1, 1, 1,
       1, 1, 2, 1, 1, 1, 1, 1, 1, 1, 2, 1, 1, 1, 1, 2, 1, 1, 2, 1, 1, 1,
       1, 1, 1, 2, 2, 1, 1, 1, 1, 1, 1, 1, 2, 1, 1, 1, 1, 1, 1, 1, 1, 2,
       1, 1, 2, 1, 1, 1, 1, 1, 1, 1, 1, 2, 1, 1, 1, 1, 1, 1, 1, 1, 1, 1,
       1, 1, 1, 1, 1, 2, 1, 1, 1, 1, 2, 1, 1, 1, 1, 1, 1, 2, 1, 1, 2, 1,
       1, 1]), 'time': 22.83328866958618}
lenSubsequence: 28{'RI': 0.581356783919598, 'num_clusters': 3, 'uShapelets': [{'ts_index': 48, 'loc': 1, 'gap': 0.054909480848547854, 'distances': array([0.06426346, 0.08000108, 0.11167645, 0.07418251, 0.12878018,
       0.0921834 , 0.11401674, 0.05794996, 0.09237396, 0.10433109,
       0.12180871, 0.24711856, 0.279067  , 0.14295756, 0.17180174,
       0.08978143, 0.07827604, 0.09343084, 0.20623671, 0.14827143,
       0.2355494 , 0.0643277 , 0.10439391, 0.06791342, 0.17472094,
       0.21598481, 0.10010121, 0.06566991, 0.1391281 , 0.067455  ,
       0.07011218, 0.11743993, 0.1162837 , 0.10312019, 0.21233843,
       0.09933588, 0.11489814, 0.07082183, 0.24950152, 0.10437853,
       0.06572302, 0.23735854, 0.15885944, 0.05169507, 0.09967234,
       0.08184775, 0.08758255, 0.10687646, 0.        , 0.15624658,
       0.08313848, 0.22680328, 0.10042905, 0.10561068, 0.27012113,
       0.09114132, 0.06964762, 0.1196439 , 0.26816195, 0.1066025 ,
       0.21584889, 0.11321209, 0.14255162, 0.09498234, 0.1242117 ,
       0.1213875 , 0.09372822, 0.10760662, 0.10353406, 0.07805973,
       0.08232746, 0.07671035, 0.0720388 , 0.12083946, 0.07126023,
       0.09963929, 0.08552677, 0.07223157, 0.0804313 , 0.08873616,
       0.08186468, 0.08470762, 0.22297117, 0.05968038, 0.14147158,
       0.08791648, 0.11110814, 0.09935008, 0.07119214, 0.09305511,
       0.08978871, 0.23250349, 0.1189951 , 0.09924286, 0.10630422,
       0.06983249, 0.10288001, 0.11717429, 0.1634194 , 0.11036575,
       0.10178597, 0.1889745 , 0.08649521, 0.13094746, 0.07095713,
       0.119169  , 0.12579997, 0.08482677, 0.09616131, 0.0973869 ,
       0.09248919, 0.07409253, 0.25867157, 0.07597058, 0.13262294,
       0.10010423, 0.07436832, 0.07044036, 0.14861924, 0.09678366,
       0.23327638, 0.09137853, 0.09102405, 0.15123797, 0.04827235,
       0.18917881, 0.09025744, 0.15820724, 0.15215743, 0.06598559,
       0.07303207, 0.07787054, 0.08907734, 0.07560498, 0.0833543 ,
       0.18985485, 0.17340897, 0.08991657, 0.11505643, 0.06460447,
       0.08222575, 0.11776715, 0.08202026, 0.11579594, 0.16250811,
       0.06982829, 0.10557223, 0.13208631, 0.081279  , 0.13954224,
       0.08661855, 0.07872129, 0.09705788, 0.22078469, 0.07185075,
       0.04847707, 0.16305011, 0.10179526, 0.08360845, 0.08068194,
       0.08493603, 0.14690142, 0.14504427, 0.09228735, 0.10286947,
       0.25104362, 0.1017746 , 0.09592678, 0.07603238, 0.07664039,
       0.10158324, 0.07865587, 0.11992254, 0.09691477, 0.06072393,
       0.09465908, 0.08157197, 0.07966921, 0.09351419, 0.09348118,
       0.07688956, 0.19400077, 0.08118713, 0.10947802, 0.10576221,
       0.10946856, 0.20586259, 0.08722027, 0.10356846, 0.0784061 ,
       0.12282798, 0.1079167 , 0.07792405, 0.19450747, 0.1068339 ,
       0.1081521 , 0.18069155, 0.09684629, 0.08438511, 0.13093526]), 'delta_distances': array([0., 0., 0., 0., 0., 0., 0., 0., 0., 0., 0., 0., 0., 0., 0., 0., 0.,
       0., 0., 0., 0., 0., 0., 0., 0., 0., 0., 0., 0., 0., 0., 0., 0., 0.,
       0., 0., 0., 0., 0., 0., 0., 0., 0., 0., 0., 0., 0., 0., 0., 0., 0.,
       0., 0., 0., 0., 0., 0., 0., 0., 0., 0., 0., 0., 0., 0., 0., 0., 0.,
       0., 0., 0., 0., 0., 0., 0., 0., 0., 0., 0., 0., 0., 0., 0., 0., 0.,
       0., 0., 0., 0., 0., 0., 0., 0., 0., 0., 0., 0., 0., 0., 0., 0., 0.,
       0., 0., 0., 0., 0., 0., 0., 0., 0., 0., 0., 0., 0., 0., 0., 0., 0.,
       0., 0., 0., 0., 0., 0., 0., 0., 0., 0., 0., 0., 0., 0., 0., 0., 0.,
       0., 0., 0., 0., 0., 0., 0., 0., 0., 0., 0., 0., 0., 0., 0., 0., 0.,
       0., 0., 0., 0., 0., 0., 0., 0., 0., 0., 0., 0., 0., 0., 0., 0., 0.,
       0., 0., 0., 0., 0., 0., 0., 0., 0., 0., 0., 0., 0., 0., 0., 0., 0.,
       0., 0., 0., 0., 0., 0., 0., 0., 0., 0., 0., 0., 0.]), 'locations': array([ 1,  1,  3,  0,  2,  1,  1,  0,  0,  6,  0,  0, 12,  3,  8,  2,  0,
        0,  0,  0, 23,  1,  1,  1,  0,  0,  4,  1,  2,  1,  1,  1,  6,  1,
        0,  3,  0,  0, 27,  4,  1,  0,  0,  0,  2,  2,  1,  0,  1,  0,  2,
       29,  6,  5, 59,  3,  2,  4,  0,  7, 21,  1,  1,  2,  8,  6,  1,  1,
        1,  1,  2,  1,  0,  6,  1,  3,  0,  3,  1,  2,  2,  3,  0,  2,  6,
        2,  3,  5,  1,  1,  0, 22,  6,  2,  2,  1,  1,  8,  1,  1,  5, 59,
        5, 10,  1,  1,  3,  3,  1,  0,  3,  4,  0,  1,  8,  0,  1,  1,  3,
        4,  0,  1,  2,  0,  1,  0,  0,  5,  0,  1,  1,  1,  0,  2,  2,  0,
        1,  1,  0,  1,  4,  4,  1,  5,  0,  2,  0,  2,  0,  1,  0,  2,  0,
        4,  1,  1,  0,  6,  1,  1,  2,  0, 11,  2,  1,  0,  1,  1,  0,  1,
        3,  1,  4,  1,  0,  1,  1,  1,  2,  3,  0,  0,  2,  2,  6,  3,  1,
        2,  1,  0,  6,  0,  2,  6,  2,  3,  0,  2,  1,  2])}, {'ts_index': 120, 'loc': 10, 'gap': 0.09070919852209575, 'distances': array([0.05105477, 0.13870432, 0.09178288, 0.05112839, 0.26041048,
       0.13147054, 0.04346316, 0.05558537, 0.2393125 , 0.05829296,
       0.04377544, 0.04517942, 0.21320898, 0.05222527, 0.04301338,
       0.19099011, 0.05649139, 0.21136705, 0.03740363, 0.09971345,
       0.08197664, 0.        , 0.05703433, 0.07122072, 0.04549805,
       0.04313286, 0.05665632, 0.0521538 , 0.05392667, 0.0460236 ,
       0.0611217 , 0.06195761, 0.06410681, 0.03996287]), 'delta_distances': array([0., 0., 0., 0., 0., 0., 0., 0., 0., 0., 0., 0., 0., 0., 0., 0., 0.,
       0., 0., 0., 0., 0., 0., 0., 0., 0., 0., 0., 0., 0., 0., 0., 0., 0.]), 'locations': array([ 7, 13, 46,  6,  2,  6,  7,  9,  2, 12,  8,  7,  4,  4,  9,  0,  6,
        0,  7,  7,  7, 10,  7, 29,  5,  8,  9, 19,  6,  5,  7,  6, 21,  6])}], 'clusters': array([1, 1, 1, 1, 1, 1, 1, 1, 1, 1, 1, 2, 0, 1, 2, 1, 1, 1, 2, 1, 0, 1,
       1, 1, 2, 2, 1, 1, 1, 1, 1, 1, 1, 1, 2, 1, 1, 1, 0, 1, 1, 2, 2, 1,
       1, 1, 1, 1, 1, 2, 1, 0, 1, 1, 2, 1, 1, 1, 2, 1, 0, 1, 1, 1, 1, 1,
       1, 1, 1, 1, 1, 1, 1, 1, 1, 1, 1, 1, 1, 1, 1, 1, 2, 1, 1, 1, 1, 1,
       1, 1, 1, 0, 1, 1, 1, 1, 1, 1, 2, 1, 1, 2, 1, 1, 1, 1, 1, 1, 1, 1,
       1, 1, 2, 1, 1, 1, 1, 1, 1, 1, 2, 1, 1, 1, 1, 2, 1, 2, 1, 1, 1, 1,
       1, 1, 1, 2, 2, 1, 1, 1, 1, 1, 1, 1, 2, 1, 1, 1, 1, 1, 1, 1, 1, 2,
       1, 1, 2, 1, 1, 1, 1, 1, 1, 1, 1, 2, 1, 1, 1, 1, 1, 1, 1, 1, 1, 1,
       1, 1, 1, 1, 1, 2, 1, 1, 1, 1, 2, 1, 1, 1, 1, 1, 1, 2, 1, 1, 2, 1,
       1, 1]), 'time': 21.30005145072937}
lenSubsequence: 31{'RI': 0.5735175879396985, 'num_clusters': 3, 'uShapelets': [{'ts_index': 137, 'loc': 0, 'gap': 0.06631834687311106, 'distances': array([0.07479701, 0.11644284, 0.12534374, 0.08764274, 0.13938595,
       0.12320731, 0.13805943, 0.1327395 , 0.07038561, 0.12395736,
       0.16415632, 0.26700729, 0.27694487, 0.15802024, 0.16683161,
       0.10534446, 0.11362591, 0.1452272 , 0.25644558, 0.19677088,
       0.23260487, 0.08418773, 0.15935442, 0.09258686, 0.22766884,
       0.2450113 , 0.12638697, 0.11809346, 0.16948764, 0.1043616 ,
       0.1158521 , 0.15141647, 0.13146798, 0.11437337, 0.25613612,
       0.10848904, 0.15549447, 0.12626351, 0.24989674, 0.12009157,
       0.07988816, 0.27747583, 0.19659703, 0.094137  , 0.14186653,
       0.10557047, 0.12557334, 0.13343985, 0.08265625, 0.21073029,
       0.08180342, 0.23002015, 0.11873518, 0.12248818, 0.27649666,
       0.0965146 , 0.06044127, 0.12765672, 0.27457156, 0.1249726 ,
       0.22320822, 0.16201435, 0.17407831, 0.09059252, 0.14101499,
       0.13630447, 0.13926999, 0.15664464, 0.11006032, 0.10270339,
       0.07018897, 0.10409212, 0.12489483, 0.05818715, 0.12037739,
       0.06696309, 0.07729896, 0.1085663 , 0.11479223, 0.10631637,
       0.04188313, 0.12267918, 0.27681477, 0.11325868, 0.15156764,
       0.13238322, 0.14081381, 0.1295667 , 0.09926023, 0.12761018,
       0.12269878, 0.23576791, 0.13427516, 0.10884812, 0.12240901,
       0.05190684, 0.04458976, 0.12627629, 0.20705994, 0.11558209,
       0.1282212 , 0.19723349, 0.12151441, 0.12765704, 0.0651297 ,
       0.15484735, 0.13902077, 0.11270429, 0.15016575, 0.07650514,
       0.11143503, 0.10851494, 0.26128011, 0.05557941, 0.14523244,
       0.07405689, 0.10114201, 0.06915217, 0.16450277, 0.12589677,
       0.27234549, 0.13684964, 0.11815252, 0.20924138, 0.07639355,
       0.24677719, 0.06830949, 0.17318233, 0.18311964, 0.10494486,
       0.12900398, 0.08885897, 0.06730108, 0.09888037, 0.0749558 ,
       0.21926171, 0.21453816, 0.        , 0.14363424, 0.10408702,
       0.11211151, 0.13762868, 0.11955127, 0.13050078, 0.21086889,
       0.05308541, 0.08804771, 0.14295305, 0.05188631, 0.16319849,
       0.06364108, 0.08142241, 0.0842673 , 0.25551437, 0.06457486,
       0.07655039, 0.20326938, 0.12821002, 0.05566979, 0.11912062,
       0.06045139, 0.15865977, 0.13902578, 0.11950549, 0.134873  ,
       0.2773221 , 0.14058156, 0.1162903 , 0.05824207, 0.06592521,
       0.13099563, 0.09509113, 0.14515925, 0.13834401, 0.10097048,
       0.13639368, 0.08715108, 0.10680574, 0.04031885, 0.12452053,
       0.12359684, 0.22806654, 0.08870006, 0.15461809, 0.12354229,
       0.13487321, 0.23970139, 0.09642415, 0.12695952, 0.12440118,
       0.1404558 , 0.14646526, 0.09688245, 0.2309628 , 0.13358538,
       0.12533572, 0.22946325, 0.12998489, 0.1302393 , 0.1643958 ]), 'delta_distances': array([0., 0., 0., 0., 0., 0., 0., 0., 0., 0., 0., 0., 0., 0., 0., 0., 0.,
       0., 0., 0., 0., 0., 0., 0., 0., 0., 0., 0., 0., 0., 0., 0., 0., 0.,
       0., 0., 0., 0., 0., 0., 0., 0., 0., 0., 0., 0., 0., 0., 0., 0., 0.,
       0., 0., 0., 0., 0., 0., 0., 0., 0., 0., 0., 0., 0., 0., 0., 0., 0.,
       0., 0., 0., 0., 0., 0., 0., 0., 0., 0., 0., 0., 0., 0., 0., 0., 0.,
       0., 0., 0., 0., 0., 0., 0., 0., 0., 0., 0., 0., 0., 0., 0., 0., 0.,
       0., 0., 0., 0., 0., 0., 0., 0., 0., 0., 0., 0., 0., 0., 0., 0., 0.,
       0., 0., 0., 0., 0., 0., 0., 0., 0., 0., 0., 0., 0., 0., 0., 0., 0.,
       0., 0., 0., 0., 0., 0., 0., 0., 0., 0., 0., 0., 0., 0., 0., 0., 0.,
       0., 0., 0., 0., 0., 0., 0., 0., 0., 0., 0., 0., 0., 0., 0., 0., 0.,
       0., 0., 0., 0., 0., 0., 0., 0., 0., 0., 0., 0., 0., 0., 0., 0., 0.,
       0., 0., 0., 0., 0., 0., 0., 0., 0., 0., 0., 0., 0.]), 'locations': array([ 1,  0,  2,  0,  1,  1,  0,  0,  0,  3,  0, 56, 64,  1,  3,  1,  0,
        0,  0,  0, 22,  1,  1,  1,  0, 57,  1,  0,  0,  0,  1,  1,  3,  0,
        0,  2,  0,  0, 22,  2,  1,  0,  0,  0,  1,  1,  1,  0,  0,  0,  1,
       24,  4,  3, 57,  1,  1,  3, 56,  5, 21,  0,  1,  1,  7,  3,  1,  0,
        1,  0,  1,  1,  0,  0,  0,  2,  0,  2,  1,  1,  1,  2,  0,  1,  4,
        1,  2,  3,  0,  0,  0, 21,  3,  1,  1,  0,  0,  6,  0,  0,  2, 57,
        3,  2,  1,  0,  2,  2,  0,  0,  2,  3, 59,  0,  7,  0,  0,  0,  0,
        2,  0,  0,  1,  0,  0,  0,  0,  1,  0,  1,  1,  0,  0,  1,  1, 54,
        0,  0,  0,  1,  3,  2,  0,  3,  0,  1,  0,  2,  0,  0,  0,  1,  0,
        3,  1,  1, 53,  5,  0,  0,  1,  0,  2,  1,  1, 42,  1,  0,  0,  0,
        2,  1,  1,  0,  0,  1,  1,  1,  1,  1,  0, 57,  1,  0,  3,  1,  0,
        1,  1,  0,  3,  0,  2,  6,  1,  2,  0,  2,  1,  1])}, {'ts_index': 136, 'loc': 5, 'gap': 0.09032490137021254, 'distances': array([0.05113715, 0.1286059 , 0.05610182, 0.0462588 , 0.24233333,
       0.13378567, 0.04920105, 0.05723926, 0.25010553, 0.05472042,
       0.04984202, 0.05201959, 0.22188858, 0.06674363, 0.03960241,
       0.20952112, 0.05255185, 0.2281396 , 0.04303775, 0.08776429,
       0.07163043, 0.04297867, 0.13036326, 0.06419991, 0.05827385,
       0.        , 0.05822876, 0.04776641, 0.05920433, 0.05560378,
       0.05446711, 0.10002166, 0.0494267 , 0.06430606]), 'delta_distances': array([0., 0., 0., 0., 0., 0., 0., 0., 0., 0., 0., 0., 0., 0., 0., 0., 0.,
       0., 0., 0., 0., 0., 0., 0., 0., 0., 0., 0., 0., 0., 0., 0., 0., 0.]), 'locations': array([ 4, 13,  5,  6, 39,  4,  4,  7,  2, 11,  6,  4, 62,  1,  6,  0,  4,
        0,  5,  4,  4,  7,  3,  5,  4,  5,  6, 17,  5,  3,  4,  5, 18,  5])}], 'clusters': array([1, 1, 1, 1, 1, 1, 1, 1, 1, 1, 1, 2, 2, 1, 1, 1, 1, 1, 2, 2, 0, 1,
       1, 1, 0, 2, 1, 1, 1, 1, 1, 1, 1, 1, 2, 1, 1, 1, 0, 1, 1, 2, 2, 1,
       1, 1, 1, 1, 1, 2, 1, 0, 1, 1, 2, 1, 1, 1, 2, 1, 0, 1, 1, 1, 1, 1,
       1, 1, 1, 1, 1, 1, 1, 1, 1, 1, 1, 1, 1, 1, 1, 1, 2, 1, 1, 1, 1, 1,
       1, 1, 1, 0, 1, 1, 1, 1, 1, 1, 2, 1, 1, 2, 1, 1, 1, 1, 1, 1, 1, 1,
       1, 1, 2, 1, 1, 1, 1, 1, 1, 1, 2, 1, 1, 2, 1, 2, 1, 1, 1, 1, 1, 1,
       1, 1, 1, 2, 2, 1, 1, 1, 1, 1, 1, 1, 2, 1, 1, 1, 1, 1, 1, 1, 1, 2,
       1, 1, 2, 1, 1, 1, 1, 1, 1, 1, 1, 2, 1, 1, 1, 1, 1, 1, 1, 1, 1, 1,
       1, 1, 1, 1, 1, 2, 1, 1, 1, 1, 2, 1, 1, 1, 1, 1, 1, 2, 1, 1, 2, 1,
       1, 1]), 'time': 19.63768172264099}
