lenSubsequence: 24{'RI': 0.5210552763819095, 'num_clusters': 3, 'uShapelets': [{'ts_index': 80, 'loc': 26, 'gap': 0.6365261924512735, 'distances': array([4.21469462, 5.01317504, 3.54653971, 4.18478229, 5.84218413,
       5.29666279, 2.48484471, 4.28485512, 4.24366258, 4.58608908,
       5.46349471, 4.12055158, 6.02545058, 4.11694321, 5.20614288,
       3.88931192, 2.64050562, 4.32224412, 4.94027158, 4.07696925,
       5.64057046, 5.48227717, 3.59453833, 3.34305979, 3.83070417,
       3.80069317, 4.10679942, 3.77779908, 4.154304  , 3.21161904,
       4.86493175, 3.46878396, 2.97510671, 4.36854071, 3.247615  ,
       3.72971133, 3.36867325, 4.84480396, 4.93229604, 4.5562465 ,
       3.4813365 , 3.69763492, 6.06470658, 3.92558296, 5.07452329,
       6.59388837, 6.20155375, 3.94209238, 4.73820917, 3.69232367,
       5.46695087, 3.78558017, 4.73573092, 3.99363858, 3.81780279,
       2.92475154, 4.90630121, 3.51503933, 4.31718312, 4.40768662,
       5.28239017, 3.313561  , 3.99690021, 4.24253512, 4.45019138,
       4.2120635 , 4.16482204, 4.29806425, 4.96953792, 4.20952942,
       5.55575837, 4.34187638, 3.44881375, 6.41961583, 5.35079442,
       4.20603533, 3.57977367, 4.68787488, 4.9737815 , 3.87300429,
       0.        , 6.07095408, 6.12732133, 3.46394729, 2.87485737,
       4.96757583, 5.11773588, 4.077301  , 3.58236167, 4.47242592,
       2.67248629, 5.16638325, 4.93118042, 4.18838079, 3.03043363,
       4.77591233, 4.99426812, 4.61560779, 4.25059725, 4.37319842,
       4.35100892, 4.196492  , 4.01008408, 6.36861838, 5.22143233,
       4.58199858, 4.30309754, 4.77720142, 4.30733983, 4.76208121,
       2.20975875, 4.54520283, 3.85102875, 2.82270513, 3.42127204,
       4.37431254, 5.47097471, 4.47238758, 3.98731183, 3.91974379,
       3.85718996, 3.21635179, 5.35513275, 5.11618704, 5.78798883,
       4.83071396, 5.75807708, 4.02503721, 5.33169167, 5.13072592,
       3.64439046, 4.2471085 , 5.10585837, 4.43435092, 4.36609779,
       4.11074158, 5.08578017, 3.20716054, 3.18350971, 3.89762992,
       4.07876642, 3.56573087, 4.41425737, 3.81467542, 4.88460867,
       4.08864567, 5.52049921, 2.90836021, 4.00288408, 4.16242   ,
       4.55476971, 4.09174221, 6.14318854, 6.03725263, 3.82309696,
       5.94774417, 3.55529275, 2.93504083, 4.5751715 , 3.80398975,
       4.36700537, 3.83933962, 3.750586  , 4.84335337, 3.68226921,
       4.42908633, 3.55394446, 4.862588  , 6.52745675, 3.47730738,
       3.82245392, 5.48823771, 4.21480454, 3.75349546, 4.32009137,
       5.8031715 , 4.69598633, 5.96409446, 4.038173  , 4.25273442,
       4.36577275, 5.01484154, 5.74460008, 5.13246942, 3.35843612,
       4.63523342, 3.94123421, 4.57262979, 4.27879783, 4.16481529,
       3.62277479, 4.22031587, 4.9855905 , 3.22864138, 3.17794242,
       3.82285908, 4.23523667, 4.44756804, 4.27734937, 6.274094  ]), 'delta_distances': array([10.34866092,  9.439739  ,  9.17886725,  9.10810992, 12.16272575,
       10.37820117,  8.15880767,  9.70199642,  9.91263717,  8.65662125,
       11.68360408,  9.14602242, 11.99038408,  7.53300633,  7.28756933,
        8.124113  ,  8.53830167, 11.0154215 ,  9.44350658,  7.50893258,
       10.506258  , 13.05899992,  8.53162125,  8.03763483,  8.58383558,
        8.70190325,  8.45886817,  8.41383458,  9.03592525,  7.79217342,
        8.81612208,  9.19235067,  6.17481308,  7.62611242,  7.83765825,
        7.94864917,  9.29511408, 10.862006  ,  9.29826525,  8.719638  ,
        9.50386592,  8.79073292, 13.33451908,  9.39024008, 10.47505058,
       10.97883258, 11.27048725,  9.35361183, 10.34448   ,  9.97652875,
       10.75847158,  9.65968825, 11.65747767,  8.8647925 ,  8.06580642,
        8.52938458,  9.44512892,  8.02972992,  8.6521525 , 10.52886383,
        8.85291917, 10.91250033,  7.5785675 , 10.34734075,  7.84027467,
        8.10772183,  8.72713692,  8.65879208, 11.959105  ,  9.45774958,
       10.24380908,  9.46078067,  8.45127425, 14.49293483, 12.43695575,
        8.65866208,  8.78722392,  9.61073392, 11.87971908,  9.41165833,
        0.        ,  9.35043583, 13.75303983,  8.23544967,  6.621887  ,
       10.87557217, 10.40864167,  9.13424767,  6.79174917,  9.43846333,
        6.94788142, 11.90597092,  9.06754508,  9.61515192,  7.71351692,
       10.87558367,  8.53364317,  8.61862675, 10.80226767, 10.39621883,
        9.39466725, 10.07559933,  9.16468667, 11.42148258, 12.51286117,
        9.42519783, 11.28549233,  9.75664875, 10.33428275, 11.20781467,
        6.55921758,  9.59277158,  7.31942467,  7.32460517,  8.53711375,
       10.38249767, 13.64290842, 11.981852  ,  9.46899267,  8.94595558,
        9.7553385 ,  8.75067283, 12.18254308,  9.79409533, 12.242433  ,
        9.55372825, 10.5042495 ,  9.75310958, 10.91672633,  9.910474  ,
        8.68293833, 10.91474658,  9.32463792,  9.7862725 ,  8.29972408,
        8.63677108, 10.20977683,  7.10925725,  7.26521142,  8.85263775,
        8.92251917,  8.67329333,  8.89793233,  7.21354842,  9.9017995 ,
        9.97824575,  9.91704467,  6.72571158, 10.19701992,  8.94251592,
        8.94847833, 10.79695483, 11.69175892,  8.58658692,  7.88609717,
       12.35638042,  7.39986592,  8.25953675,  9.67236775,  9.17579292,
        7.57995325,  8.19135325,  8.329048  ,  9.9137545 ,  9.18200692,
        7.19159   ,  7.04297942, 10.43400525, 10.4251805 ,  9.40408092,
        9.83004175,  9.39480817,  7.73338658,  9.26934017,  8.970279  ,
        9.81672075, 10.82658417, 12.26348817,  8.00172192,  9.58031483,
        8.93221275, 10.84650042, 11.57823383, 11.78727725,  7.97617942,
       10.33744258,  7.15318725, 10.30579917,  8.89069992,  8.26870692,
        8.55598683, 10.26472108,  9.59000433,  8.78457775,  7.14556833,
        7.726482  ,  8.2943    ,  8.89614942,  8.54569267, 10.39854317]), 'locations': array([24, 24, 35, 27, 43, 25, 36, 28, 21, 45, 18, 16,  1, 39, 48, 31, 27,
       27,  6, 12,  9, 36, 28, 23, 15, 16, 32, 26, 17, 25, 26, 20, 40, 21,
       20, 38, 24, 25,  6, 35, 24, 25, 19, 27, 22, 16, 24, 33, 26, 17, 24,
       15, 32, 38, 15, 30, 25, 31, 18, 40, 40, 17, 20, 25, 45, 45, 26, 21,
       26, 23, 46, 33, 23, 23, 27, 23, 22, 31, 24, 28, 26,  1, 23, 29, 41,
       18, 33, 35, 26, 23, 24,  8,  7, 32, 38, 26, 33, 33, 16, 31, 40, 21,
       36, 27, 24, 27, 33, 26, 27, 23, 29, 30, 17, 24, 35, 22, 27, 26, 22,
       34, 21, 25, 27, 17, 23, 18, 23, 37, 22, 17, 25, 26, 28, 25, 28, 17,
       18, 24, 33, 29, 26, 38, 23, 34, 15, 21, 17, 32, 24, 21, 31, 30, 24,
        8, 27, 28, 14, 36, 23, 28, 23, 19, 41, 23, 18, 18, 22, 24, 12, 26,
       29, 22, 30, 25, 25, 13, 24, 20, 27, 26, 21, 17, 28, 21, 40, 36,  9,
       23, 21, 18, 36, 27, 19, 31, 32, 39, 14, 25, 30, 14])}, {'ts_index': 152, 'loc': 14, 'gap': 0.7236380412110726, 'distances': array([2.71022613, 1.19864125, 1.35215521, 3.03848471, 1.51057058,
       3.29538688, 2.08226633, 1.49301354, 0.47553879, 2.45240712,
       2.50606229, 3.26211125, 1.68252571, 1.07876963, 1.82996783,
       1.56695621, 1.92715358, 1.67239808, 1.42893925, 1.68248821,
       1.331447  , 1.64597825, 0.70531888, 1.82477971, 1.30365712,
       0.        , 1.25679383, 1.28636363, 1.08924717, 2.12942383,
       1.1468145 , 1.14546992, 1.06645975, 0.98117612]), 'delta_distances': array([7.10735967, 4.01018742, 4.7414345 , 7.17930292, 3.59350333,
       5.64073975, 5.5447635 , 3.61289933, 2.49018783, 6.72190933,
       6.64212108, 7.92344783, 4.41761067, 3.9941015 , 3.90850683,
       4.61851708, 5.12390042, 4.44387792, 3.13005317, 4.89281667,
       4.70354275, 5.04202217, 3.31902008, 5.6244325 , 4.01256675,
       0.        , 4.75011325, 4.757635  , 3.5761185 , 5.80589775,
       3.33753958, 4.299493  , 4.6695635 , 3.547145  ]), 'locations': array([12, 15,  8,  2, 52, 50, 13,  6, 15, 15, 16, 29, 15, 12, 10, 10,  5,
       16, 14,  9, 15, 13, 12, 10,  9, 14,  5, 14, 15, 10,  8, 11, 14, 15])}], 'clusters': array([1, 1, 1, 1, 0, 2, 1, 1, 1, 1, 2, 1, 0, 1, 2, 1, 1, 1, 1, 1, 0, 2,
       1, 1, 1, 1, 1, 1, 1, 1, 1, 1, 1, 1, 1, 1, 1, 1, 1, 1, 1, 1, 2, 1,
       1, 2, 0, 1, 1, 1, 0, 1, 1, 1, 1, 1, 1, 1, 1, 1, 0, 1, 1, 1, 1, 1,
       1, 1, 1, 1, 2, 1, 1, 2, 2, 1, 1, 1, 1, 1, 1, 2, 2, 1, 1, 1, 1, 1,
       1, 1, 1, 1, 1, 1, 1, 1, 1, 1, 1, 1, 1, 1, 1, 2, 2, 1, 1, 1, 1, 1,
       1, 1, 1, 1, 1, 1, 2, 1, 1, 1, 1, 1, 2, 1, 2, 1, 2, 1, 2, 1, 1, 1,
       1, 1, 1, 1, 1, 1, 1, 1, 1, 1, 1, 1, 1, 1, 2, 1, 1, 1, 1, 1, 2, 2,
       1, 2, 1, 1, 1, 1, 1, 1, 1, 1, 1, 1, 1, 1, 2, 1, 1, 2, 1, 1, 1, 2,
       1, 2, 1, 1, 1, 1, 2, 1, 1, 1, 1, 1, 1, 1, 1, 1, 1, 1, 1, 1, 1, 1,
       1, 2]), 'time': 33.789387464523315}
lenSubsequence: 28{'RI': 0.5660301507537688, 'num_clusters': 4, 'uShapelets': [{'ts_index': 110, 'loc': 11, 'gap': 0.7344106053463673, 'distances': array([1.77000389, 3.41258689, 3.18321021, 2.16924364, 3.00539643,
       2.10566429, 3.51226132, 2.396112  , 3.27975786, 4.07252811,
       2.97075368, 4.55680414, 2.31985693, 2.96190336, 2.58478221,
       2.12305636, 1.49711196, 2.70984075, 3.91401525, 3.39620582,
       5.05563246, 3.21965804, 2.0020965 , 1.78683136, 2.72148007,
       3.06062686, 2.61222643, 2.37984971, 4.02951239, 3.65344432,
       2.2520095 , 2.35489618, 3.46054318, 3.4988125 , 5.13797982,
       2.54137986, 2.92534464, 2.64148507, 4.47895379, 4.37586725,
       1.33364568, 3.26636543, 2.49658139, 1.98118621, 2.94656275,
       2.16873654, 3.19221857, 2.95837589, 2.20494918, 4.43269654,
       3.33313596, 4.55346139, 2.00979525, 4.89539414, 3.94629882,
       2.52092775, 3.58368832, 2.1280625 , 2.14024539, 3.07315214,
       3.92442064, 5.00173004, 2.71053729, 1.79396454, 3.71014596,
       2.30544518, 2.49257818, 2.43228664, 2.26585436, 3.98457714,
       1.10939161, 3.99501096, 3.34962111, 4.01752993, 3.65453146,
       4.78265064, 1.88142932, 2.68728125, 2.265307  , 2.87356575,
       2.09006575, 5.44202421, 4.01906718, 2.3555485 , 2.63950325,
       2.61146832, 3.53305536, 2.66908954, 2.213418  , 3.20459368,
       3.58266061, 4.95461643, 3.29790914, 1.81961732, 2.54895332,
       4.09264825, 3.33606964, 1.96719139, 4.38771279, 4.39456136,
       2.44006543, 2.1057255 , 2.16135943, 2.47263218, 3.21685089,
       3.05370043, 2.20364414, 1.76108768, 1.751991  , 4.20788479,
       0.        , 2.80631539, 3.30101561, 0.957933  , 1.44975554,
       2.562006  , 1.7935415 , 1.60073996, 2.35686525, 3.07815496,
       1.78931961, 2.12257154, 2.06261764, 4.44263807, 2.45745668,
       2.85032293, 2.29608475, 2.674072  , 2.16067232, 3.05349975,
       1.93065175, 1.25843061, 2.51866068, 1.32482818, 2.70526118,
       3.41933429, 2.91178214, 2.69279846, 1.99376571, 2.43966718,
       2.35609768, 2.07723782, 2.16986446, 1.91110129, 2.72580011,
       3.39516054, 3.6266105 , 1.65757889, 2.74091182, 2.86409854,
       2.16507782, 2.36110239, 2.90405596, 2.09378429, 2.4240135 ,
       2.38182029, 2.4139185 , 2.0678575 , 1.922522  , 2.76164629,
       3.00291443, 3.09136289, 3.52165696, 2.32433193, 1.80177943,
       3.47817618, 2.62591921, 2.68778479, 1.67404689, 2.41480014,
       1.59548707, 3.46344882, 1.72019343, 2.26683011, 2.627536  ,
       3.2383675 , 2.11456104, 3.64990607, 2.13042032, 1.76587479,
       1.95377082, 2.54509057, 2.40053225, 1.82265104, 3.16023393,
       4.00146489, 4.07141664, 2.07358914, 2.34803054, 2.435975  ,
       2.57899957, 2.14282929, 2.68370561, 1.58918818, 1.71477018,
       2.28409529, 2.86187575, 2.18260754, 2.17759243, 2.86178521]), 'delta_distances': array([4.85084314, 6.76932607, 8.16340286, 5.18523507, 6.51438521,
       5.99130979, 5.78547707, 6.24445229, 7.83080521, 8.63883107,
       7.17061636, 9.70818321, 5.66811293, 7.17654571, 5.63542721,
       5.28341264, 4.91122314, 6.730029  , 7.38724993, 7.06007757,
       5.75917407, 6.59182836, 3.5462905 , 5.25292907, 4.94253   ,
       6.59807607, 6.0853185 , 6.39841229, 5.462903  , 7.89394821,
       4.95803957, 5.47955593, 7.99092064, 5.41068636, 6.57718529,
       4.89887393, 7.73269136, 6.74185507, 6.544089  , 7.60980914,
       4.25550321, 5.95452771, 5.72786693, 4.61444707, 5.62714786,
       6.14687357, 6.57626436, 5.62366136, 5.65330443, 5.84992286,
       7.79166836, 6.05405621, 4.84061357, 9.25245229, 7.587761  ,
       6.174191  , 7.31697529, 5.6454295 , 5.67032443, 8.4466925 ,
       7.317466  , 9.88930557, 6.51312771, 5.40426971, 6.83354607,
       5.28843293, 6.74554664, 5.66948971, 4.57275843, 8.10456457,
       3.83053257, 7.59811979, 7.51005921, 6.423028  , 7.24491979,
       7.13928807, 4.989349  , 6.76783557, 5.77661521, 5.70616964,
       6.91873936, 8.56668071, 7.96203664, 6.39148414, 7.24517079,
       4.97831186, 5.73145579, 5.49409907, 4.9279995 , 7.88376164,
       7.11364121, 7.42302043, 7.59220121, 4.27857243, 5.03392593,
       6.72354357, 6.96822407, 4.57233586, 5.96863257, 8.7108685 ,
       5.03323507, 5.22362579, 4.68290936, 5.2396005 , 7.38488521,
       5.65536007, 5.51554807, 4.73347671, 4.58395343, 8.78139693,
       0.        , 5.87840014, 6.06164236, 3.31494971, 4.65357721,
       4.86862657, 3.50068186, 5.04555079, 4.879475  , 5.05841143,
       5.10326457, 4.906013  , 5.09646136, 7.82068671, 5.99291707,
       5.519509  , 5.26982543, 6.46968043, 5.78753743, 4.68417993,
       5.09053979, 3.92236007, 5.26055579, 3.30630564, 5.308965  ,
       7.0510755 , 5.55818893, 6.153152  , 4.04065886, 5.02752986,
       5.26751814, 6.10356771, 4.97649107, 5.2083085 , 7.32192679,
       7.09739771, 6.0824945 , 5.37286436, 5.28213557, 5.49833707,
       5.387916  , 6.29229007, 6.00788607, 5.48045686, 6.00610921,
       4.60449593, 5.2333655 , 5.47894971, 5.11006307, 5.95156721,
       5.41098236, 4.891447  , 5.07695893, 5.65676586, 4.87367429,
       6.0005405 , 4.92854657, 6.20502693, 4.00987921, 5.95986236,
       4.66965579, 6.570728  , 4.19802293, 5.63717107, 6.89580357,
       6.28380807, 5.30186029, 7.18950843, 4.20066821, 5.00659714,
       5.08913336, 4.92977029, 5.24025764, 4.65166579, 5.60307157,
       8.51020779, 5.14970557, 5.17743429, 4.43526964, 5.45618114,
       7.11979693, 5.01866186, 5.35944493, 3.785898  , 4.116702  ,
       5.16430714, 5.82809836, 6.0375475 , 3.70789193, 5.102711  ]), 'locations': array([ 6,  7, 17,  9, 13,  7, 11,  4,  5, 29,  0,  2,  2, 13, 19,  6,  9,
        8,  0,  2, 42,  5, 10,  7,  0,  0,  6,  5, 58,  7,  8,  2, 19, 66,
       56, 13,  6,  7, 64, 14,  6,  9,  5,  6,  7,  7,  7,  2,  8, 54,  8,
       61, 15, 19,  2,  5,  7, 13,  1, 22, 22,  6,  4,  7, 33, 13,  5,  0,
       66,  5,  7,  7,  6, 67,  9, 62,  5, 10,  6, 10,  8,  9,  2,  8, 23,
        0, 67,  9,  8,  0,  6, 43, 13, 64,  9,  0,  2, 15, 58, 17,  8,  3,
       14,  8,  8,  9, 10,  6,  9,  5, 11, 12,  1,  6, 17,  6,  9,  8,  4,
        4,  3,  7,  9,  1,  7,  2,  5, 19,  4,  9,  7,  8,  8,  7, 10,  3,
        7,  7,  6,  8,  8, 20,  4, 17,  4, 12,  4, 14,  6,  4, 11, 12,  7,
        9,  6,  6,  0, 18,  5, 10,  9,  1,  8,  5,  0,  0,  6,  3,  7,  8,
       11,  6, 10,  7,  7,  2,  8, 10,  9,  8,  3,  0,  6,  3,  7,  6, 55,
        5,  2,  1, 15,  6,  6, 13, 14, 14,  3,  5,  8,  9])}, {'ts_index': 54, 'loc': 16, 'gap': 0.38850241165319654, 'distances': array([1.02935718, 2.00032468, 2.56010579, 1.75690796, 2.2246165 ,
       2.64725825, 1.96656486, 1.61511389, 1.55688232, 2.14682379,
       1.23347386, 1.31212361, 0.        , 2.375202  , 1.98735396,
       2.06152007, 0.89917432, 1.28475768, 2.84292171, 2.53770996,
       1.26625325, 1.72029007, 3.05730954, 2.62616511, 2.26218054,
       2.56097039, 2.36801054, 1.33362632, 2.20211779, 2.01522443,
       2.378976  , 2.46493946, 2.23906461, 1.73916961]), 'delta_distances': array([3.07928279, 4.97016971, 4.11438521, 3.54660271, 4.03630193,
       6.81803136, 5.52070707, 4.3471155 , 3.67347207, 7.72343679,
       5.02219271, 3.94198121, 0.        , 5.0053455 , 4.2324365 ,
       5.33024393, 2.74646757, 4.15640643, 4.08365057, 3.4654855 ,
       4.29996029, 6.17155971, 7.04885907, 5.32659443, 4.95263664,
       4.60400157, 4.32767764, 4.43701571, 5.90830136, 4.79017236,
       4.0543585 , 4.71778179, 5.10649279, 4.13813221]), 'locations': array([40, 20, 53, 54, 67, 23, 21, 48, 35, 15, 11, 38, 16, 29, 40, 25, 47,
       23, 57, 58, 31, 39, 37, 37, 63, 55, 53, 30, 18, 40, 66, 64, 37, 15])}, {'ts_index': 146, 'loc': 2, 'gap': 0.38402529522127127, 'distances': array([4.15043114, 4.05823946, 3.34530714, 2.77621507, 3.82762625,
       3.22338346, 3.35380896, 4.23314171, 2.56582336, 2.98988721,
       3.05410554, 3.75442446, 3.12048711, 2.85667871, 2.67692629,
       4.34661932, 3.63953014, 2.88141082, 3.15181886, 2.59139679,
       2.06735646, 2.25757836, 0.        , 2.84146668, 3.10001879,
       2.95805339]), 'delta_distances': array([7.38154821, 6.44752279, 5.47021207, 8.08187564, 5.40457721,
       5.58519943, 7.85633571, 9.02422379, 7.12826321, 5.23898829,
       9.06569693, 6.57798157, 5.31522443, 5.42256543, 4.75331421,
       7.04773314, 7.5086475 , 6.59928307, 5.09262057, 4.85728729,
       5.705838  , 5.60308207, 0.        , 7.20288343, 6.16200143,
       4.72831557]), 'locations': array([37, 59, 49,  4, 51, 57, 33,  6,  1, 46, 22, 66, 45, 66, 11, 48, 34,
       40, 47, 44,  7,  2,  2,  3,  4, 50])}, {'ts_index': 18, 'loc': 11, 'gap': 0.6361494172283311, 'distances': array([3.06414429, 0.        , 4.26396139, 3.30554664, 6.05757425]), 'delta_distances': array([5.25766664, 0.        , 7.53508443, 4.27548207, 9.0403825 ]), 'locations': array([13, 11, 21, 35, 36])}], 'clusters': array([1, 1, 1, 1, 1, 1, 1, 1, 1, 2, 1, 4, 1, 1, 1, 1, 1, 1, 4, 1, 3, 1,
       1, 1, 1, 1, 1, 1, 3, 0, 1, 1, 1, 1, 3, 1, 1, 1, 3, 4, 1, 1, 1, 1,
       1, 1, 1, 1, 1, 3, 1, 2, 1, 2, 2, 1, 3, 1, 1, 1, 3, 3, 1, 1, 2, 1,
       1, 1, 1, 2, 1, 3, 1, 3, 2, 3, 1, 1, 1, 1, 1, 0, 3, 1, 1, 1, 1, 1,
       1, 1, 1, 3, 1, 1, 1, 3, 1, 1, 3, 2, 1, 1, 1, 1, 1, 1, 1, 1, 1, 3,
       1, 1, 1, 1, 1, 1, 1, 1, 1, 1, 1, 1, 1, 3, 1, 1, 1, 1, 1, 1, 1, 1,
       1, 1, 1, 1, 1, 1, 1, 1, 1, 1, 1, 1, 1, 1, 3, 1, 1, 1, 1, 1, 1, 1,
       1, 1, 1, 1, 1, 1, 1, 1, 1, 1, 1, 1, 1, 1, 1, 1, 1, 1, 1, 1, 1, 1,
       1, 3, 1, 1, 1, 1, 1, 1, 1, 3, 3, 1, 1, 1, 1, 1, 1, 1, 1, 1, 1, 1,
       1, 1]), 'time': 31.501513719558716}
lenSubsequence: 32{'RI': 0.5675376884422111, 'num_clusters': 5, 'uShapelets': [{'ts_index': 113, 'loc': 6, 'gap': 0.7037166765524434, 'distances': array([2.33994691, 3.26049625, 3.51045828, 2.26802084, 4.72759863,
       2.52669716, 3.65763413, 3.76359703, 3.79207556, 4.61156253,
       3.55461422, 5.60732791, 4.91848516, 3.21987656, 3.33796581,
       2.49114562, 2.11300866, 3.60568009, 3.47733772, 3.69360187,
       4.69757606, 3.35669713, 2.41139319, 2.17213559, 3.3284495 ,
       3.35269731, 3.26571344, 2.30149384, 3.90489891, 4.27398009,
       2.87265294, 2.855096  , 4.49636294, 4.38253134, 4.88118184,
       3.09107253, 3.31457912, 3.20750356, 4.35411272, 4.77916875,
       2.76425447, 4.02793212, 2.46693459, 1.84034581, 3.31789569,
       2.59209744, 3.24208859, 3.11338103, 2.52921022, 3.99544091,
       2.865417  , 4.33507675, 2.37339269, 5.03474603, 4.50558456,
       2.79065484, 3.96128075, 2.86158819, 2.68813372, 3.01579925,
       3.79800347, 4.92289781, 2.98376225, 1.80275237, 3.97839984,
       3.34404297, 2.53241819, 2.93215763, 2.92656081, 3.86215044,
       2.25116656, 4.24748225, 3.45765078, 4.25425103, 3.31942409,
       4.68492756, 2.7882695 , 2.47818628, 2.77340603, 3.06799944,
       4.14889244, 5.62249797, 5.01641291, 2.24936619, 3.42379153,
       2.80430963, 4.34543597, 3.04767481, 2.34104891, 3.46393125,
       3.86205972, 4.13486456, 3.45042906, 2.98352587, 2.51578456,
       3.94414472, 2.44774856, 1.90609278, 4.20744984, 4.42634047,
       2.26655347, 2.32459428, 2.01470991, 2.22856763, 3.17388819,
       3.63571772, 2.46481491, 1.98535456, 2.54719047, 3.89755519,
       1.62988228, 2.91085297, 4.03146903, 0.        , 2.45028562,
       2.64600737, 2.00059266, 2.18193609, 2.21884619, 4.44186725,
       2.98986359, 2.54812481, 3.02551184, 2.7916025 , 2.17551434,
       2.75296019, 3.04523181, 2.81053459, 2.37964028, 3.99812822,
       2.52202912, 2.01625012, 2.38880194, 2.10445628, 2.77838878,
       3.91227916, 3.12628175, 2.72213156, 2.43615803, 2.58138537,
       2.18338912, 2.58978269, 2.35589263, 2.39189825, 3.60055172,
       2.87671072, 3.43863681, 2.4408395 , 3.08154   , 2.93852872,
       2.60801747, 2.42746241, 3.35866969, 2.78477403, 2.39772594,
       2.37703891, 2.85929478, 2.77795772, 2.38175025, 3.96760609,
       3.49181891, 2.99736269, 4.14640791, 2.89537288, 2.69225178,
       3.27484056, 3.32091003, 2.53048322, 2.24534506, 2.66225012,
       1.81352644, 4.63626575, 2.46557159, 2.38712381, 3.02791556,
       3.37707153, 2.4369695 , 2.94912281, 2.55311131, 2.46219263,
       2.26098191, 3.00206303, 1.96724653, 2.42992503, 2.89642834,
       3.80631641, 4.02365244, 2.02079816, 2.22769366, 2.50223184,
       3.19178738, 2.55025597, 2.74617794, 2.36189706, 2.46719225,
       2.198408  , 3.41700125, 2.33494556, 2.10178125, 2.81692987]), 'delta_distances': array([ 6.497328  ,  6.65691731,  7.41825312,  6.85916606,  5.87574119,
        6.1776215 ,  9.02284419,  8.4009355 ,  7.97851819,  8.72381187,
        7.98797363,  6.18507731,  8.96398688,  7.53679513,  6.84702569,
        5.70961594,  5.19339556,  7.0927945 ,  7.61933544,  7.98918075,
        5.72689181,  7.82485706,  6.37088438,  6.04647819,  7.0331775 ,
        7.39273669,  6.94547119,  6.04550669,  6.22613794,  8.92625319,
        8.15084181,  7.8011275 , 10.034035  ,  6.04383569,  6.45789337,
        6.77862506,  8.57559275,  8.52498906,  7.00647844,  9.35560525,
        6.25955887,  8.01731694,  6.43104575,  5.53968325,  7.30081069,
        7.00150019,  7.05926206,  7.32222919,  6.94993094,  6.13630669,
        6.82190625,  6.26233162,  5.63406744,  9.86827412,  9.64926369,
        6.51463837,  7.86488787,  6.93619956,  6.61100244,  8.01409181,
        7.04080075,  6.52933912,  7.92903119,  6.01957025,  6.92317325,
        6.05806   ,  6.64779025,  6.16049431,  7.27149519,  5.76249625,
        5.70764231,  8.806611  ,  8.76208269,  6.62442425,  7.20620844,
        6.85308756,  7.28672681,  5.61317638,  6.88593069,  6.71774288,
       10.32416981, 10.54157031,  6.35433481,  6.4702815 ,  8.07372525,
        5.982914  ,  6.39887719,  6.91744556,  5.40912412,  8.17789819,
        7.26790775,  6.5748945 ,  6.96168231,  7.09983681,  5.39298656,
        8.5808195 ,  6.6441885 ,  5.74648256,  5.43266869,  8.4355605 ,
        5.85139844,  5.74156375,  5.20512731,  5.02007681,  7.39074194,
        6.94735112,  6.62117994,  5.25193287,  6.48483275,  7.29585781,
        5.01286794,  5.38371169,  6.31415244,  0.        ,  6.987868  ,
        6.34432506,  5.47890094,  5.3925265 ,  5.39091694,  6.68890519,
        6.62446875,  5.35139794,  6.57912581,  6.00709219,  5.52020931,
        5.63405444,  7.035121  ,  7.22129344,  5.23343994,  7.84924056,
        5.89480969,  4.43470375,  5.01734875,  5.14020956,  6.20883281,
        7.30059031,  5.51538881,  7.31813806,  5.87034725,  5.3591855 ,
        5.84472744,  5.80978906,  5.70548275,  5.88310462,  8.96807856,
        6.45190856,  7.28908806,  5.87056919,  6.47409731,  6.11697594,
        5.90106612,  6.40419975,  7.31250581,  5.79704537,  5.99166556,
        5.15464331,  5.77777394,  6.66740125,  5.63175744,  6.8197375 ,
        6.24903181,  5.63234337,  8.49293531,  5.95352844,  6.31693706,
        6.45575913,  7.24330219,  6.27652637,  5.34528163,  7.12924138,
        4.76863513,  9.38204469,  5.57405981,  6.33995712,  8.23253106,
        6.70919188,  6.99371369,  6.29267913,  5.74999769,  6.42289756,
        6.1287505 ,  7.118982  ,  5.28198987,  6.77172831,  5.41272394,
       10.46143856,  6.29518   ,  6.06264406,  5.50258688,  6.54695794,
        6.98545819,  6.33911737,  5.59126019,  4.95229756,  6.23348256,
        5.71866494,  6.80973213,  6.97174956,  4.33146831,  5.13788181]), 'locations': array([ 6,  7, 17,  5, 51,  3,  1,  3,  1, 16,  0, 54,  2, 14, 19, 11,  9,
        2,  0,  2, 48,  3,  3,  5,  1,  2,  6,  5, 60,  7,  6,  2, 21, 59,
       56, 16,  6,  7, 60, 10,  2,  9,  1,  9,  7,  7,  7, 11,  9, 50,  4,
       57, 12, 16,  1,  5,  7, 13,  1, 18, 22, 62,  2,  7, 33,  9,  2,  0,
        8, 59,  7,  6,  5, 59,  9, 62,  3,  4,  6,  6,  8,  9, 55,  4, 23,
        0, 63,  5,  8,  3,  2, 43, 20,  8,  9,  2,  1, 11, 54,  9, 13,  1,
       14,  5,  7,  9,  8,  7,  3,  3, 11,  6,  0,  6, 18,  7,  9,  7,  4,
        0,  3,  7,  8,  2,  8,  0,  5, 19,  0, 10,  3,  4,  4,  7, 10,  2,
        3,  7,  6,  7,  8, 16,  5, 16,  0, 11,  2, 14,  6,  2,  3, 12,  4,
        5,  2,  4,  1, 18,  4, 11,  5,  2, 20,  3,  0,  1,  7,  4,  6,  6,
        7,  2, 10,  3,  9,  8,  8,  3,  7,  8,  3,  1, 10,  3,  8,  3, 51,
        5,  2,  7, 12,  4,  6,  9, 10, 13,  1,  5,  8,  3])}, {'ts_index': 4, 'loc': 30, 'gap': 0.4807865057571168, 'distances': array([0.        , 4.46275947, 4.24749788, 3.95485484, 4.10692534,
       5.03515175, 4.71113137, 3.98284822, 4.60742972, 4.516834  ,
       3.82458256, 3.83399606, 4.38485112, 4.1909865 , 2.42412469,
       4.48224406, 3.85090922, 4.25044081, 5.16086831, 3.51217091,
       3.31045116, 4.73424975, 5.06108847, 4.37622663, 4.38428156,
       4.05520028, 4.39015341, 3.01478756, 4.72561544, 2.57520203,
       4.93792416, 2.03231525, 4.63958097, 3.58936903]), 'delta_distances': array([0.        , 4.20809694, 6.9404965 , 5.88151119, 4.31508975,
       7.69080869, 5.75616869, 6.26539006, 7.32471431, 4.73888256,
       6.82396037, 5.3347915 , 4.96680006, 4.42671669, 5.1285005 ,
       5.13436369, 5.83526444, 5.40618525, 6.0655405 , 6.2211275 ,
       6.59732688, 7.69136256, 7.74758081, 5.14739375, 6.54036506,
       4.80209969, 7.17946744, 6.05782581, 6.77014287, 5.58349806,
       4.67685931, 4.857294  , 7.22994581, 6.47195637]), 'locations': array([30, 36, 18, 19, 51, 40, 50,  6, 30, 45, 37, 12, 55, 53, 25, 12, 24,
       32, 63, 25, 24, 40, 37, 49, 16, 47, 33, 18,  1, 21, 53, 25, 23, 39])}, {'ts_index': 51, 'loc': 12, 'gap': 0.48202605421852995, 'distances': array([0.90193444, 2.07512738, 2.17427319, 1.85325778, 3.06838966,
       1.40217709, 2.44059581, 1.96533481, 1.82318103, 1.38230944,
       1.48702019, 2.54798438, 0.        , 1.48808075, 2.29878791,
       1.24347363, 2.39571575, 2.7228225 , 2.85564897, 2.60649034,
       2.34897119, 2.45806844, 2.70828319, 2.35620856, 2.64797394,
       2.72122216, 1.25577459]), 'delta_distances': array([2.54484419, 4.84186369, 4.66932125, 3.54570825, 8.19013462,
       3.69099531, 5.10947469, 5.47860744, 4.04548469, 3.6138305 ,
       4.56633788, 5.25123937, 0.        , 3.83544463, 5.01985331,
       2.88983362, 5.68629062, 5.990329  , 4.81126863, 4.44241638,
       4.98624862, 4.76025544, 4.158843  , 5.35588175, 6.77671387,
       5.66226869, 3.883248  ]), 'locations': array([44, 23, 31, 55, 27, 42, 18, 21, 49, 39, 29, 14, 12, 18, 28, 50, 30,
       35, 37, 47, 31, 51, 56, 19, 22, 21, 18])}, {'ts_index': 80, 'loc': 17, 'gap': 0.5537676763503843, 'distances': array([3.68810044, 5.37294881, 5.65185784, 2.8223635 , 4.21700838,
       5.56457487, 4.67568628, 2.96838184, 3.53384506, 4.95386103,
       0.        , 5.54120931, 5.20921788, 5.21214919, 5.70361237,
       3.28445341, 3.59480475, 4.04563056, 4.58031431]), 'delta_distances': array([ 7.41065825,  8.55212613,  6.64982575,  6.68017156,  7.60630094,
        8.875911  ,  8.30041694,  6.60840994,  8.91385787, 11.2228215 ,
        0.        ,  9.39986375, 10.05142825,  9.81200956,  6.84396331,
        6.73399069,  7.38153269,  9.05344606,  9.738807  ]), 'locations': array([10, 11, 42, 16, 12, 24, 37,  8,  8, 24, 17, 18,  6, 24, 52,  7, 10,
       16, 13])}], 'clusters': array([1, 1, 1, 1, 2, 1, 1, 1, 1, 3, 1, 4, 0, 1, 1, 1, 1, 1, 1, 1, 0, 1,
       1, 1, 1, 1, 1, 1, 1, 4, 1, 1, 3, 4, 0, 1, 1, 1, 0, 3, 1, 3, 1, 1,
       1, 1, 1, 1, 1, 4, 1, 3, 1, 2, 3, 1, 1, 1, 1, 1, 1, 4, 1, 1, 3, 1,
       1, 1, 1, 1, 1, 0, 1, 2, 1, 2, 1, 1, 1, 1, 4, 0, 0, 1, 1, 1, 0, 1,
       1, 1, 1, 0, 1, 1, 1, 1, 1, 1, 4, 2, 1, 1, 1, 1, 1, 1, 1, 1, 1, 1,
       1, 1, 4, 1, 1, 1, 1, 1, 1, 2, 1, 1, 1, 1, 1, 1, 1, 1, 1, 4, 1, 1,
       1, 1, 1, 1, 1, 1, 1, 1, 1, 1, 1, 1, 1, 1, 1, 1, 1, 1, 1, 1, 1, 1,
       1, 1, 1, 1, 1, 1, 1, 1, 2, 1, 1, 1, 1, 1, 1, 1, 1, 0, 1, 1, 1, 1,
       1, 1, 1, 1, 1, 1, 1, 1, 1, 1, 3, 1, 1, 1, 1, 1, 1, 1, 1, 1, 1, 1,
       1, 1]), 'time': 23.773958206176758}
