{'FOTS': {5: {'RI': 0.46949748743718595, 'num_clusters': 8, 'uShapelets': [{'ts_index': 98, 'loc': 51, 'gap': 0.0771567295028937, 'distances': array([0.23288827, 0.22751297, 0.33617338, 0.39225974, 0.38167252,
       0.45845899, 0.42760603, 0.42651493, 0.42132892, 0.2228645 ,
       0.30309616, 0.13949913, 0.43297309, 0.29344835, 0.43025461,
       0.40623379, 0.41824385, 0.43312596, 0.32511563, 0.2576141 ,
       0.34826254, 0.41160759, 0.17120358, 0.28371234, 0.16945397,
       0.27461263, 0.22632919, 0.2387185 , 0.15881636, 0.37144497,
       0.41008778, 0.34956012, 0.18600382, 0.25498787, 0.28557103,
       0.18156796, 0.42561368, 0.36888882, 0.40479769, 0.38627762,
       0.28828346, 0.3899144 , 0.44494665, 0.36832944, 0.36605169,
       0.27307988, 0.39229405, 0.40140147, 0.36882147, 0.34352459,
       0.45561937, 0.45807597, 0.45620985, 0.4310091 , 0.40022903,
       0.26833397, 0.27025223, 0.372507  , 0.49329729, 0.48122096,
       0.20427317, 0.39724088, 0.30777468, 0.4061674 , 0.38778559,
       0.40239707, 0.17477245, 0.34687005, 0.26209985, 0.40712977,
       0.44895352, 0.35910599, 0.21179109, 0.4013639 , 0.3332239 ,
       0.43790888, 0.44045503, 0.15332983, 0.34705926, 0.43623316,
       0.46095655, 0.45390217, 0.21801041, 0.36262901, 0.33901495,
       0.40813391, 0.38257887, 0.41097716, 0.42277255, 0.42577769,
       0.39847428, 0.38995222, 0.40270465, 0.25658593, 0.34894247,
       0.32989912, 0.23366386, 0.41494128, 0.        , 0.46431253,
       0.44440875, 0.43290781, 0.19595446, 0.47153666, 0.47759289,
       0.35628372, 0.44943089, 0.1975681 , 0.38655826, 0.41585211,
       0.35083122, 0.42414448, 0.35845623, 0.22180915, 0.41879137,
       0.42603281, 0.27507449, 0.23931767, 0.47798734, 0.42919822,
       0.39936694, 0.30174473, 0.3663897 , 0.26111306, 0.44363118,
       0.2743675 , 0.40587715, 0.41425488, 0.42465316, 0.43343436,
       0.33101922, 0.3594566 , 0.33166172, 0.36065486, 0.46822344,
       0.38648484, 0.30010916, 0.28356836, 0.44741131, 0.42429182,
       0.44503532, 0.3440839 , 0.28668506, 0.41698211, 0.33853697,
       0.45908748, 0.45396354, 0.4550531 , 0.28071482, 0.26907224,
       0.4246598 , 0.4080376 , 0.3515718 , 0.37780691, 0.33854437,
       0.43921367, 0.42334166, 0.31641916, 0.36191692, 0.18185599,
       0.32841677, 0.43097857, 0.47467418, 0.42199849, 0.44853888,
       0.40606198, 0.32571835, 0.38518927, 0.28705443, 0.37143717,
       0.37598617, 0.3398259 , 0.38935508, 0.43836959, 0.39396993,
       0.42215288, 0.42294838, 0.25817494, 0.40113416, 0.44336117,
       0.44056125, 0.44247208, 0.35275962, 0.27813723, 0.46481147,
       0.43691819, 0.38471162, 0.45775049, 0.33045195, 0.22572066,
       0.38836874, 0.43118178, 0.40756956, 0.47555859, 0.43142901,
       0.41267953, 0.36974777, 0.10147475, 0.42666086, 0.21111911]), 'delta_distances': array([0., 0., 0., 0., 0., 0., 0., 0., 0., 0., 0., 0., 0., 0., 0., 0., 0.,
       0., 0., 0., 0., 0., 0., 0., 0., 0., 0., 0., 0., 0., 0., 0., 0., 0.,
       0., 0., 0., 0., 0., 0., 0., 0., 0., 0., 0., 0., 0., 0., 0., 0., 0.,
       0., 0., 0., 0., 0., 0., 0., 0., 0., 0., 0., 0., 0., 0., 0., 0., 0.,
       0., 0., 0., 0., 0., 0., 0., 0., 0., 0., 0., 0., 0., 0., 0., 0., 0.,
       0., 0., 0., 0., 0., 0., 0., 0., 0., 0., 0., 0., 0., 0., 0., 0., 0.,
       0., 0., 0., 0., 0., 0., 0., 0., 0., 0., 0., 0., 0., 0., 0., 0., 0.,
       0., 0., 0., 0., 0., 0., 0., 0., 0., 0., 0., 0., 0., 0., 0., 0., 0.,
       0., 0., 0., 0., 0., 0., 0., 0., 0., 0., 0., 0., 0., 0., 0., 0., 0.,
       0., 0., 0., 0., 0., 0., 0., 0., 0., 0., 0., 0., 0., 0., 0., 0., 0.,
       0., 0., 0., 0., 0., 0., 0., 0., 0., 0., 0., 0., 0., 0., 0., 0., 0.,
       0., 0., 0., 0., 0., 0., 0., 0., 0., 0., 0., 0., 0.]), 'locations': array([80, 25, 34, 19,  9, 14, 49, 35, 61, 40, 87,  9, 23,  8, 50, 57, 39,
       57, 64, 41, 82, 69, 50,  5, 48, 68, 74, 86, 19, 45, 49, 64, 47, 53,
       20, 77, 68,  3, 33, 86, 70, 85, 83, 83, 82, 15, 87,  4, 49, 79, 58,
       56, 30, 37,  4, 73, 85, 15, 70,  5, 52, 68, 36, 48, 58, 67,  5, 65,
       54, 34, 75, 50, 65, 66, 65, 20, 71, 18, 53, 14, 26,  8, 51, 83, 77,
       69, 59, 52,  5, 47, 51, 40, 89, 27, 22,  4, 85, 69, 51, 18, 12, 30,
       56, 17,  7, 52, 76, 84, 76,  2, 76, 18, 28, 55, 26, 82, 45, 61, 40,
       18, 84,  8, 45,  8, 32, 24, 38, 84, 85, 74, 32, 14,  2, 35, 60, 80,
       51, 69, 33, 61, 40, 17, 11, 38, 57, 18, 37, 45, 20, 60, 88,  3, 79,
        5, 86, 17, 60, 59, 42, 75, 65, 67, 20, 54, 69, 34, 75, 48,  6, 85,
       10,  5, 67, 45, 77, 18,  7, 52,  7, 66, 28, 67,  5, 71, 69, 62, 56,
       61, 21, 51, 10, 47, 40, 26, 55, 22, 87, 59,  7, 52])}, {'ts_index': 83, 'loc': 65, 'gap': 0.08419831149069384, 'distances': array([0.22845992, 0.39211316, 0.40734662, 0.38196906, 0.48188098,
       0.44858969, 0.26708001, 0.36782981, 0.2324822 , 0.45681919,
       0.34589288, 0.36472394, 0.43154778, 0.41616238, 0.34516622,
       0.3462005 , 0.41843145, 0.44766933, 0.23731126, 0.4457275 ,
       0.33728526, 0.43899358, 0.3664839 , 0.32118382, 0.41732606,
       0.36439511, 0.38682165, 0.34169524, 0.4246675 , 0.46173174,
       0.39624777, 0.29710123, 0.33732205, 0.30759459, 0.46634057,
       0.38061232, 0.45296508, 0.39087401, 0.29655397, 0.40438624,
       0.17740123, 0.27583187, 0.47675649, 0.38595456, 0.42051684,
       0.20901686, 0.41950772, 0.43570986, 0.43307635, 0.40583695,
       0.40903892, 0.42585048, 0.44729454, 0.32789184, 0.407582  ,
       0.4319245 , 0.34424788, 0.40126536, 0.43168073, 0.40765998,
       0.33322906, 0.3536723 , 0.        , 0.37469113, 0.32998073,
       0.38288358, 0.42533962, 0.06184479, 0.42378705, 0.45829574,
       0.32280466, 0.40761537, 0.19227998, 0.39141084, 0.29383804,
       0.18571072, 0.44280665, 0.42204533, 0.17822959, 0.35322489,
       0.44563335, 0.41151173, 0.3700711 , 0.18879672, 0.48247289,
       0.11456264, 0.40460382, 0.31461296, 0.09941044, 0.36116591,
       0.34090459, 0.37879343, 0.31525946, 0.42081376, 0.30461068,
       0.37393569, 0.40032381, 0.19228717, 0.37669322, 0.44101436,
       0.05911008, 0.35954099, 0.40544803, 0.42282416, 0.38835545,
       0.38698304, 0.40090552, 0.43595246, 0.47940005, 0.29838381,
       0.45733664, 0.32225733, 0.40820604, 0.4028001 , 0.32562225,
       0.42777279, 0.32495246, 0.31898526, 0.34449294, 0.21179209,
       0.35786313, 0.39356718, 0.32336099, 0.28733819, 0.38718859,
       0.0975983 , 0.1854699 , 0.39872203, 0.32438403, 0.42057173,
       0.29478818, 0.42632318, 0.32565231, 0.43271114, 0.4446998 ,
       0.1980968 , 0.37535692, 0.39258983, 0.46197367, 0.25667057,
       0.39972417, 0.18666668, 0.44097389, 0.4344052 , 0.38785242,
       0.371111  , 0.45719587, 0.46586739, 0.43009428, 0.44574882,
       0.28674847, 0.38673293, 0.39848094, 0.2636346 , 0.11831783,
       0.35728781, 0.36376806, 0.41380703, 0.39760326, 0.35468401,
       0.31351351, 0.13898094, 0.41681693, 0.41616486, 0.3528186 ]), 'delta_distances': array([0., 0., 0., 0., 0., 0., 0., 0., 0., 0., 0., 0., 0., 0., 0., 0., 0.,
       0., 0., 0., 0., 0., 0., 0., 0., 0., 0., 0., 0., 0., 0., 0., 0., 0.,
       0., 0., 0., 0., 0., 0., 0., 0., 0., 0., 0., 0., 0., 0., 0., 0., 0.,
       0., 0., 0., 0., 0., 0., 0., 0., 0., 0., 0., 0., 0., 0., 0., 0., 0.,
       0., 0., 0., 0., 0., 0., 0., 0., 0., 0., 0., 0., 0., 0., 0., 0., 0.,
       0., 0., 0., 0., 0., 0., 0., 0., 0., 0., 0., 0., 0., 0., 0., 0., 0.,
       0., 0., 0., 0., 0., 0., 0., 0., 0., 0., 0., 0., 0., 0., 0., 0., 0.,
       0., 0., 0., 0., 0., 0., 0., 0., 0., 0., 0., 0., 0., 0., 0., 0., 0.,
       0., 0., 0., 0., 0., 0., 0., 0., 0., 0., 0., 0., 0., 0., 0., 0., 0.,
       0., 0., 0., 0., 0., 0., 0., 0., 0., 0., 0., 0.]), 'locations': array([46, 48, 65,  3, 11,  7, 51, 80, 54, 61, 68, 26, 79, 19, 52, 13, 31,
       65, 24, 42, 54, 44,  6, 76, 54, 81, 39, 18, 15, 82,  4, 20, 69, 55,
       57, 42, 60, 67, 90, 61, 74, 10, 15, 52, 26, 87, 76, 36, 18, 53,  9,
       65, 35, 63, 10, 48, 72, 58,  6, 45, 13, 35, 65,  3, 45,  5,  9, 61,
       81,  7, 49, 19, 64, 10, 26, 73, 27, 60, 74, 72, 68, 19, 34, 15, 25,
       37, 48, 73, 56, 64, 48,  8,  2, 81, 17, 64, 59, 72, 36, 79, 24, 38,
        4, 47, 90,  9, 74, 20, 49,  6, 86, 33,  4,  6, 49, 69, 78,  3,  0,
        9, 49, 37, 68, 59, 31, 80,  2, 72, 64, 10, 35,  8, 65, 36, 49, 68,
        2, 48, 51, 77, 90, 59, 45, 60, 34, 32, 76,  0,  2, 46, 73, 62,  8,
       45, 26, 16, 13, 87, 23, 64, 69, 13, 73, 23, 78])}, {'ts_index': 132, 'loc': 90, 'gap': 0.06660366864618947, 'distances': array([0.35692792, 0.4258593 , 0.34074487, 0.38144388, 0.33799875,
       0.33500856, 0.13067845, 0.39547545, 0.1665012 , 0.32087292,
       0.29267895, 0.38712253, 0.38481144, 0.39632196, 0.2981586 ,
       0.31331385, 0.36097222, 0.28945078, 0.23999326, 0.29183435,
       0.32839037, 0.25045598, 0.3760577 , 0.35050828, 0.35724658,
       0.37923525, 0.28953691, 0.39953362, 0.17682778, 0.34127208,
       0.20547525, 0.26185737, 0.26812263, 0.41136354, 0.32156702,
       0.30566554, 0.22452884, 0.33627436, 0.26677055, 0.2986786 ,
       0.22581382, 0.25279514, 0.17047476, 0.36341756, 0.32976731,
       0.41111238, 0.39086037, 0.32767731, 0.26639073, 0.37886997,
       0.2886215 , 0.30772994, 0.11771531, 0.38231749, 0.42308634,
       0.2706631 , 0.37945027, 0.36559702, 0.27462468, 0.30344617,
       0.32866334, 0.24362607, 0.14064365, 0.37937682, 0.10864201,
       0.3036309 , 0.35104491, 0.31861453, 0.32438887, 0.15760579,
       0.2986314 , 0.40548226, 0.26489745, 0.43744801, 0.34653317,
       0.32763835, 0.38444113, 0.37553099, 0.36732022, 0.13817089,
       0.13286277, 0.30310701, 0.39025084, 0.38580465, 0.37877853,
       0.        , 0.37941213, 0.4034017 , 0.34155529, 0.36745106,
       0.25093495, 0.34758428, 0.39135369, 0.43357515, 0.32592388,
       0.32482065, 0.39608428, 0.27038525, 0.40054972, 0.31677746,
       0.40436014, 0.27184401, 0.32638926, 0.34828268, 0.25972002,
       0.41446075, 0.34782056, 0.26835951, 0.39036117, 0.34545101,
       0.12588351, 0.39308164, 0.38496396, 0.19321048, 0.33756004,
       0.33015865, 0.28354973, 0.2717621 , 0.3023932 , 0.40003567,
       0.20456097, 0.25907638, 0.24240811, 0.29795086, 0.40574253,
       0.28048168, 0.22864558, 0.30348147, 0.19323262, 0.3353998 ,
       0.37585038, 0.17399603, 0.42821918, 0.37755317, 0.18281354,
       0.38762222]), 'delta_distances': array([0., 0., 0., 0., 0., 0., 0., 0., 0., 0., 0., 0., 0., 0., 0., 0., 0.,
       0., 0., 0., 0., 0., 0., 0., 0., 0., 0., 0., 0., 0., 0., 0., 0., 0.,
       0., 0., 0., 0., 0., 0., 0., 0., 0., 0., 0., 0., 0., 0., 0., 0., 0.,
       0., 0., 0., 0., 0., 0., 0., 0., 0., 0., 0., 0., 0., 0., 0., 0., 0.,
       0., 0., 0., 0., 0., 0., 0., 0., 0., 0., 0., 0., 0., 0., 0., 0., 0.,
       0., 0., 0., 0., 0., 0., 0., 0., 0., 0., 0., 0., 0., 0., 0., 0., 0.,
       0., 0., 0., 0., 0., 0., 0., 0., 0., 0., 0., 0., 0., 0., 0., 0., 0.,
       0., 0., 0., 0., 0., 0., 0., 0., 0., 0., 0., 0., 0., 0., 0., 0., 0.]), 'locations': array([19, 70, 36,  6, 52,  6, 16,  9, 57, 64, 57,  6, 25, 43,  5, 45, 15,
       64, 16, 44, 83, 66, 44, 70, 81, 39,  7,  6,  6, 74, 40, 86, 79, 89,
       40, 14, 54, 70, 47, 36, 48, 58, 67, 35, 19, 51, 64, 74, 57, 12, 70,
       53, 14, 26, 40, 86,  1, 53,  7, 86, 63, 40, 89, 54, 11, 48, 65, 52,
       49, 76, 42, 62, 32, 62,  5, 90, 84, 13, 86,  3, 28, 82,  9, 71, 79,
       90, 63, 69, 80, 51,  9,  1, 60, 15, 45, 38,  6, 57,  3, 65, 22, 60,
       47, 82, 73, 59, 82, 40, 53, 76, 10, 35,  1,  9, 10, 85,  5, 85, 77,
       21,  7, 82, 78, 46, 52, 71, 70, 42,  5, 57, 17, 44, 45, 12, 68, 50])}, {'ts_index': 84, 'loc': 3, 'gap': 0.07036289941363094, 'distances': array([0.19388997, 0.24806117, 0.14693435, 0.3546738 , 0.32969388,
       0.34377385, 0.18487532, 0.35086954, 0.29295411, 0.25366561,
       0.16745662, 0.22447437, 0.30060089, 0.23222353, 0.21712651,
       0.24798995, 0.26045365, 0.23611326, 0.23348989, 0.23006728,
       0.23428462, 0.14119187, 0.21230796, 0.3151588 , 0.18994621,
       0.16946305, 0.36588161, 0.3863004 , 0.27565446, 0.2667398 ,
       0.33823902, 0.21746174, 0.21271836, 0.26489213, 0.24300126,
       0.22140368, 0.34374868, 0.38887917, 0.21056578, 0.22335345,
       0.2175988 , 0.15527697, 0.23994085, 0.24762058, 0.19056723,
       0.25253333, 0.        , 0.23809776, 0.1883796 , 0.2098677 ,
       0.41122056, 0.26324582, 0.366055  , 0.30169578, 0.11454469,
       0.29393929, 0.26645965, 0.31690282, 0.23006515, 0.17238846,
       0.17957255, 0.18822559, 0.38692695, 0.18766567, 0.26340949,
       0.21548433, 0.13129699, 0.35813027, 0.21586202, 0.3529614 ,
       0.25156709, 0.28767832, 0.25976399, 0.34846404, 0.36344238,
       0.38099035, 0.40547   , 0.14756924, 0.13640199, 0.32482693,
       0.2845176 , 0.11875981, 0.29041373, 0.23698955, 0.14893726,
       0.21242869, 0.19933674, 0.22257929, 0.10692913, 0.18613214,
       0.22986542, 0.27083693, 0.21776423, 0.23227302, 0.17382878,
       0.41104591, 0.16521067, 0.40538754, 0.3873642 , 0.3178704 ,
       0.24400689, 0.2964518 , 0.3616455 , 0.28515651, 0.23436886,
       0.17743285, 0.28629252, 0.12141267, 0.20212545, 0.15631895,
       0.27210112, 0.18473988]), 'delta_distances': array([0., 0., 0., 0., 0., 0., 0., 0., 0., 0., 0., 0., 0., 0., 0., 0., 0.,
       0., 0., 0., 0., 0., 0., 0., 0., 0., 0., 0., 0., 0., 0., 0., 0., 0.,
       0., 0., 0., 0., 0., 0., 0., 0., 0., 0., 0., 0., 0., 0., 0., 0., 0.,
       0., 0., 0., 0., 0., 0., 0., 0., 0., 0., 0., 0., 0., 0., 0., 0., 0.,
       0., 0., 0., 0., 0., 0., 0., 0., 0., 0., 0., 0., 0., 0., 0., 0., 0.,
       0., 0., 0., 0., 0., 0., 0., 0., 0., 0., 0., 0., 0., 0., 0., 0., 0.,
       0., 0., 0., 0., 0., 0., 0., 0., 0., 0.]), 'locations': array([65,  7, 75, 44, 69, 80, 36, 75, 63, 52, 13,  5, 28, 34, 54, 51, 59,
       57, 81, 39, 61, 69, 82, 56, 23, 32, 75, 60, 67, 90,  9, 29,  9, 66,
        6, 18,  6, 66, 32, 21, 76, 72, 58,  6, 21, 76,  3,  4,  5, 65, 19,
       44, 51, 84, 72, 51, 40, 90, 57, 57, 25, 19, 77, 37, 81, 27, 36, 36,
       38, 33, 51,  9, 33, 17, 67, 43,  5, 52,  4, 77, 12, 69, 61, 48, 40,
       10, 37, 88, 31, 72, 64, 10, 35, 66, 50, 70, 48, 65, 56, 32, 44, 34,
       11,  2, 24, 62, 48, 87, 23, 69, 13, 64])}, {'ts_index': 165, 'loc': 56, 'gap': 0.05029733099884143, 'distances': array([0.25871363, 0.19230041, 0.28623773, 0.18661881, 0.29488899,
       0.2375398 , 0.29618639, 0.2773407 , 0.28984169, 0.13137578,
       0.24969696, 0.29572754, 0.26812497, 0.27471528, 0.2832202 ,
       0.31543649, 0.        , 0.17509157, 0.26958335, 0.32213997]), 'delta_distances': array([0., 0., 0., 0., 0., 0., 0., 0., 0., 0., 0., 0., 0., 0., 0., 0., 0.,
       0., 0., 0.]), 'locations': array([46,  4, 10, 54, 51, 61, 57, 66, 49, 39, 37, 50, 37, 12, 64, 74, 56,
       79, 38, 77])}, {'ts_index': 70, 'loc': 63, 'gap': 0.061029920105049346, 'distances': array([0.31925304, 0.33073193, 0.38322977, 0.31420739, 0.        ,
       0.18665003, 0.30541043, 0.25003643, 0.19224057, 0.3386754 ,
       0.2217829 , 0.29790952, 0.15609744, 0.141295  , 0.19949695]), 'delta_distances': array([0., 0., 0., 0., 0., 0., 0., 0., 0., 0., 0., 0., 0., 0., 0.]), 'locations': array([29, 62, 86,  0, 63, 85, 78, 90, 61, 13, 68, 22, 65, 30, 63])}, {'ts_index': 16, 'loc': 11, 'gap': 0.03880661564556859, 'distances': array([0.37535386, 0.        , 0.28927059, 0.2734288 , 0.32628016,
       0.13987407, 0.29700706]), 'delta_distances': array([0., 0., 0., 0., 0., 0., 0.]), 'locations': array([27, 11, 81,  9, 37, 85, 61])}, {'ts_index': 6, 'loc': 61, 'gap': 0.09770144913886922, 'distances': array([0.        , 0.22723387, 0.32493532, 0.36387022]), 'delta_distances': array([0., 0., 0., 0.]), 'locations': array([61, 54, 10,  5])}], 'clusters': array([1, 1, 2, 4, 4, 4, 8, 4, 2, 1, 5, 1, 2, 3, 4, 3, 7, 4, 4, 1, 4, 4,
       1, 4, 1, 2, 1, 1, 1, 4, 4, 4, 1, 1, 3, 1, 4, 4, 4, 4, 4, 4, 4, 4,
       4, 3, 4, 3, 5, 8, 4, 4, 4, 2, 2, 1, 1, 3, 4, 4, 1, 2, 4, 3, 4, 3,
       1, 4, 1, 7, 6, 4, 1, 4, 4, 4, 4, 1, 4, 3, 4, 4, 1, 2, 4, 4, 4, 4,
       2, 6, 4, 3, 3, 1, 2, 0, 1, 2, 1, 2, 3, 4, 1, 2, 4, 4, 4, 1, 3, 2,
       4, 2, 4, 1, 4, 2, 4, 1, 4, 5, 4, 4, 4, 1, 3, 3, 2, 4, 6, 2, 4, 6,
       3, 4, 4, 4, 7, 6, 0, 6, 4, 4, 4, 4, 4, 4, 4, 4, 2, 1, 4, 4, 4, 2,
       4, 2, 2, 4, 4, 1, 4, 4, 4, 3, 4, 5, 2, 3, 4, 5, 2, 6, 2, 4, 4, 4,
       3, 1, 6, 3, 4, 4, 2, 4, 3, 2, 2, 4, 3, 1, 4, 4, 3, 4, 2, 4, 3, 1,
       4, 1]), 'time': 1020.017954826355}}, 'UED': {5: {'RI': 0.5109547738693467, 'num_clusters': 3, 'uShapelets': [{'ts_index': 156, 'loc': 48, 'gap': 2.5253983185919884, 'distances': array([ 9.2735354,  8.1974304,  8.8416538,  6.0178162,  5.5820074,
        7.9911952,  5.061562 , 10.082075 ,  5.8188294,  7.2447182,
        6.7576668, 10.7256332,  5.8124638,  6.1378694,  9.063937 ,
       10.6444462,  8.9509524,  9.7246666,  9.8374594, 15.480371 ,
        5.7082692,  2.8759452,  7.3088768, 15.7763534,  8.4184986,
       13.7098946,  5.0900234, 10.728762 , 10.5363152,  9.9900138,
       10.5624606, 13.0963212, 13.0085326,  9.2763002,  8.4912308,
        7.6262958,  3.6301508,  6.8421742, 11.2131476, 11.8731258,
       11.377975 ,  8.112972 , 10.7420484,  7.8716262, 12.7463854,
        9.6218068, 10.1195256, 10.2519244,  9.9989274, 11.1947426,
       11.2170678, 14.7185374, 16.6164436,  5.4360226, 13.6106854,
       12.1119764, 13.586135 ,  9.838123 , 11.0202942, 15.3949092,
        6.1339832,  9.5742946, 16.070611 , 12.9255246,  6.420002 ,
       11.7188594, 13.0663238, 11.9905148, 11.0280122,  7.9379966,
       10.927352 ,  7.4610758, 10.2640368,  2.7304928, 11.7768344,
       14.9148632, 15.8903916, 14.3371374,  7.0959846,  6.3998602,
        4.2162462,  0.8445398, 10.211798 , 10.7742188, 10.5143332,
        8.2764378, 15.1049278,  9.405968 , 14.1320214, 15.0425392,
       10.9177708,  9.009494 , 11.1721314, 10.917468 ,  9.3305106,
        6.8867922, 12.1256294,  3.8791344,  6.7929952,  8.3655266,
       10.310628 , 14.6042552, 14.6413594, 11.7439348, 13.0323344,
       14.0207774, 12.9012712, 12.1255814, 12.8558828, 11.9137476,
        7.4789198, 14.3678394, 10.8678624,  6.3479528, 14.9589818,
        2.8581902,  4.877786 , 12.3608434, 10.4757716, 12.2454906,
       12.3471992,  6.09111  , 11.0378216,  9.4197412, 10.2228238,
       15.548465 , 15.2266858,  9.321219 , 12.9176618,  6.1717698,
       13.1711932,  8.6289134, 14.0035616, 15.880265 , 12.3271524,
       12.4750826,  7.6960662, 14.737323 ,  5.4270602,  6.7040238,
       13.5562302, 10.8134424, 14.9121364, 16.1166572, 10.963946 ,
       12.5616556, 16.1610768, 15.4091516, 10.874015 , 16.1313728,
       13.663186 , 12.9016012, 11.6811526, 13.7336224, 11.0421048,
       16.2064966,  0.       , 10.3103092, 10.9370366, 10.2001034,
       10.394723 , 10.6470302,  5.6863188,  9.2092582, 11.938731 ,
       14.1838574, 13.5746132, 13.1561758, 15.1864138,  7.1475622,
       11.9179874, 15.9201588,  9.6034636,  8.7800868, 14.3675774,
       15.1119754, 14.1409852, 13.1099716, 10.6572286,  8.5867908,
       13.7826744, 16.350741 , 11.1833364, 14.332159 , 11.6163542,
       12.7115498, 14.7104954,  5.123263 , 15.892143 ,  8.1585686,
       10.5815398, 11.3858962, 14.3693708,  5.8921134,  3.796698 ,
       13.1061932,  7.4245992, 15.659542 , 15.0976308, 13.190348 ]), 'delta_distances': array([18.4825828, 16.3171292, 19.8333864, 15.4936756, 15.0740808,
       16.4974732, 14.230828 , 16.861902 , 16.1531504, 19.3984764,
       18.5437772, 22.5470048, 18.4387856, 14.4806236, 18.4152736,
       18.4154532, 15.3668416, 18.461928 , 23.0038492, 26.0168348,
       20.0777296, 13.512844 , 20.0121104, 22.8586396, 16.9517884,
       22.7889892, 13.699004 , 18.0585416, 16.7653128, 17.8961644,
       28.4944964, 19.8873032, 25.0487696, 17.6057716, 18.8310928,
       23.6918744, 13.0478848, 20.7511292, 26.1362464, 20.6348328,
       21.4152648, 18.516024 , 19.4956792, 25.8163968, 21.2988148,
       25.1805004, 19.5168104, 17.3225544, 21.4488464, 19.9964236,
       20.5677884, 25.7806688, 18.5778848, 15.61199  , 21.8531628,
       23.8047896, 17.4511032, 19.96485  , 21.3497088, 19.1496904,
       15.7336672, 21.3827016, 24.542772 , 27.5859868, 18.22157  ,
       20.8294008, 24.1341892, 19.22654  , 23.8690724, 18.0568696,
       26.0417788, 17.038888 , 24.9734772,  9.9350612, 18.3516984,
       23.2569152, 25.798464 , 21.9621408, 19.0714656, 14.4399436,
        9.3603944,  7.2729576, 19.9197488, 26.3562824, 21.7837688,
       19.8537732, 25.8822344, 17.5187408, 17.8045152, 25.0195312,
       18.4301668, 23.0503292, 18.4318228, 21.938036 , 21.5963832,
       15.354614 , 25.1224936, 16.6111728, 25.3572884, 16.4434768,
       22.606102 , 23.0919368, 25.01224  , 18.0844176, 21.6839592,
       16.712054 , 23.1911624, 27.3253852, 21.3092472, 19.0325152,
       13.6437076, 21.0925932, 20.8209316, 16.6982836, 25.8340492,
       13.1899124, 14.9183712, 23.3926592, 16.4374076, 23.01873  ,
       19.654316 , 19.7744028, 24.4334252, 21.138402 , 24.1405452,
       22.8233464, 17.8569932, 17.8099424, 22.882276 , 15.3901364,
       23.7907092, 20.3931628, 20.0241488, 23.9858772, 23.174364 ,
       21.2009212, 16.8274664, 18.2775596, 16.8768308, 18.7899104,
       24.1790028, 25.8412456, 19.405462 , 21.178584 , 21.860682 ,
       17.5604248, 20.5173264, 32.553388 , 16.8194536, 19.9604972,
       22.3269592, 21.7735224, 25.7766076, 28.2175448, 22.3275864,
       21.7420536,  0.       , 24.551606 , 18.1992096, 15.73594  ,
       15.9996604, 24.0587168, 16.8849988, 17.9764092, 20.0288416,
       21.4328908, 19.8933856, 20.6608616, 22.1778576, 25.8257728,
       22.1774352, 20.487948 , 19.0082492, 17.9854312, 28.0696416,
       20.2225056, 22.9085256, 21.2898524, 22.7719884, 24.4492552,
       18.63664  , 19.0175656, 26.2203224, 22.4492196, 20.0589964,
       20.9092112, 23.4257344, 12.889714 , 18.7582464, 19.9561936,
       26.9776296, 23.036196 , 20.9994108, 15.8633172, 12.3413948,
       23.8775664, 16.6549932, 24.2452936, 19.5698116, 17.8524144]), 'locations': array([31, 19, 34, 34,  9, 55, 19, 84, 90, 28, 44, 27, 27,  8, 44, 26, 34,
       34, 11, 48, 40, 43, 35, 39, 53, 23, 23, 30, 19, 32,  5, 27, 44, 48,
       13, 45,  9, 44, 31, 20, 31,  8, 28,  4, 20, 42,  6,  8, 34, 24, 11,
       22, 14,  9, 45, 37, 36, 38, 43, 54,  9, 24, 24, 36, 32, 38,  1,  7,
       44, 13, 42, 40,  7, 10,  6, 48, 30,  7,  3, 35, 33,  8, 37, 12, 20,
       25, 38, 90, 23, 36, 31, 31, 14, 89,  6, 40, 38, 40,  6, 14, 38, 28,
       43, 51, 15, 29, 35, 39,  6, 32, 36, 11, 45, 35, 42,  5, 34, 36, 29,
       41, 28,  1,  6, 31, 37, 24, 30, 44, 29,  8, 32, 33, 24, 43,  8, 45,
       32, 84,  5,  5, 33, 45, 68, 23, 29, 28, 46,  5, 20, 14, 45, 37,  7,
       44, 41, 21, 48, 43, 42, 52, 23, 43,  6, 10, 25, 13, 15, 42, 32, 33,
       36, 38, 35, 32, 33, 12, 33,  6,  6, 33, 28, 24, 39, 38, 47, 45, 16,
       48, 65, 44, 41, 29, 26, 38, 39, 48, 28, 30, 37,  7])}, {'ts_index': 2, 'loc': 1, 'gap': 2.2310003057264414, 'distances': array([ 3.7972282, 12.3959436,  0.       ,  3.3940604,  5.2533102,
       11.9494232,  2.1766158,  8.7883214,  7.4420964,  5.1502378,
        5.0760612,  8.922155 ,  8.9666522, 10.2205548,  5.6961112,
        4.0302788,  7.5959806,  6.7016462,  8.4685048,  6.162624 ,
       10.9527676,  7.4884278,  3.0944178,  7.1406086, 10.6198652,
        9.9556062, 14.22626  ,  5.2253882,  9.2925134, 10.6884924,
        8.355884 ,  8.243487 ,  3.0051926,  5.491007 ,  5.775606 ,
       10.1369628,  8.4548788, 10.9167598,  7.6955856,  4.5613326,
        8.1553702, 10.2298154,  9.293334 ,  5.3055472,  9.4325706,
       12.9616734,  6.7039864,  3.9645552, 12.408426 ,  3.3013316,
        6.417307 ,  7.2770942,  8.6432536,  4.2280682, 12.848419 ,
        9.1246262,  4.4840244,  3.8201094, 12.009754 ,  7.2920132,
        9.512046 , 10.4456172,  7.1764172,  8.259051 ,  3.4672148,
        2.7829192,  3.7579252, 11.6963394, 12.6191382, 13.4428248,
        6.7589052,  5.9862568,  6.7958082,  5.4230954, 13.3555598,
       13.2076222, 12.4635212,  9.0686032,  9.8599388, 11.5601476,
        5.2922228,  4.368262 ,  2.4126894,  8.530709 , 11.5399336,
        8.6664866,  8.701831 , 12.1604274, 11.9806784,  8.576739 ,
        4.2182396, 12.1459326,  9.0116338, 12.9600802,  7.3051462,
        4.5139716, 12.0457506,  9.5199378,  9.9852948,  4.8565692,
        6.419014 ,  6.5100732, 13.0237046,  9.2901714, 10.1532924,
        1.2876478,  7.8311106, 10.9482448,  3.267229 ,  5.7248844,
        9.6904036, 10.3003   ,  5.6219356,  7.4038494,  6.2995314,
        4.8284966,  6.9244058,  8.0221114,  6.6927626, 13.405805 ,
       13.639632 ,  7.9807292, 12.9341912,  4.6698556,  8.8677196,
        5.7675958,  5.701579 ,  8.0574212,  7.2191442,  8.2352758,
       11.5663358,  6.1798128, 10.5445664, 12.2520998,  6.9092088,
        9.8904826,  2.697146 ,  9.8646254, 10.3737508,  9.0594284,
        7.5001238, 12.986152 ,  8.6098952, 10.1387932,  4.3802202,
        9.78985  ,  8.4888314, 12.8434754, 11.0767576,  6.5536932,
       11.9813856,  8.4891182,  7.7636956,  6.9150342,  8.4342572,
       12.2124174, 13.4230628,  5.781703 , 16.010847 ,  3.850175 ,
       10.3505502,  9.9208404,  3.8753886, 10.6457086,  7.1700932]), 'delta_distances': array([15.0002136, 25.8306964,  0.       ,  7.8492784, 15.5775552,
       27.1481604,  9.7259816, 19.3139424, 17.3256232, 20.4884296,
       16.5151744, 23.7320104, 23.4406212, 25.589648 , 18.607968 ,
       14.9522848, 19.7330004, 20.054694 , 17.67267  , 20.6389164,
       20.7687176, 25.09291  , 17.3702864, 16.64061  , 23.8853384,
       25.0052804, 27.5042756, 19.52208  , 24.8626368, 25.8346804,
       18.2784708, 17.8125824, 12.7176408, 17.757144 , 12.3190168,
       20.8711892, 18.2487216, 21.1270368, 19.2253676, 17.2477716,
       21.4023996, 19.8435132, 21.513062 , 14.2702632, 20.935272 ,
       21.3272644, 27.5177624, 19.4197244, 29.8006504, 10.634392 ,
       17.5767996, 20.1958636, 17.9144352, 10.3523264, 22.503116 ,
       23.2827416, 13.8326368, 12.8803188, 22.2585476, 20.5816324,
       24.1876436, 18.1009244, 20.1468196, 23.9372088, 14.9098948,
        8.1495824, 15.371134 , 23.8865136, 24.7995528, 25.6601484,
       21.7169356, 19.0522852, 23.2457156, 23.3278396, 24.4013048,
       24.2533572, 26.9484164, 30.3961648, 19.8421072, 24.6837652,
       13.9645752, 15.6331832, 10.6477852, 23.0171104, 21.2299432,
       21.5368548, 21.1684512, 20.5502268, 25.8688192, 21.3127552,
       13.3851548, 26.7969148, 20.988332 , 25.5774924, 17.7043908,
       17.579616 , 22.3364104, 23.1629488, 19.7087944, 13.6877016,
       17.0709192, 13.5763888, 29.4228092, 22.3636176, 27.2113332,
        9.2654012, 23.402282 , 23.5867348, 12.2035436, 16.058652 ,
       21.7147548, 20.3509452, 18.3055676, 22.2195836, 21.8213476,
       15.9584944, 20.4337144, 23.0589524, 17.594816 , 20.764316 ,
       29.3127092, 20.3576592, 22.097646 , 14.827126 , 22.934166 ,
       20.4252936, 17.3086708, 22.6363048, 14.263206 , 21.963204 ,
       22.5521844, 18.1316304, 19.9884772, 25.0850116, 19.5822012,
       29.1888356, 10.9452172, 22.6927612, 22.1777524, 21.921518 ,
       17.0139344, 25.8272632, 13.9037824, 21.6986224, 23.7450308,
       24.3744668, 16.2833268, 21.7523584, 21.2220464, 19.9211004,
       22.1712648, 21.9623848, 27.3793008, 18.4437452, 19.2785516,
       20.4098548, 30.3742616, 16.1772808, 23.716154 , 11.2917124,
       22.5112432, 24.514822 , 14.0648904, 24.4048956, 21.6839204]), 'locations': array([ 0, 48,  1, 37,  0, 87, 87, 90, 81,  0, 89, 34, 87, 36,  0, 87, 87,
       89,  0,  6, 51, 41,  2, 34, 88,  2, 20,  3,  0, 90, 34, 50, 36,  3,
        0, 75, 46, 31, 86, 87,  3, 87,  1, 43, 45, 65,  2,  0,  0, 87, 89,
       89, 73,  1, 46,  0, 42,  0, 45,  6, 90, 55, 87, 38,  0, 42,  1,  4,
       48, 44,  4, 89,  2,  1, 85,  0,  6,  0, 88,  8, 87, 37,  1,  3, 63,
       43, 38,  1, 43, 88,  2, 38, 87,  2, 87,  0, 32,  0, 39,  4, 88, 31,
       43, 44, 37,  0,  0, 46, 88,  0,  3, 80, 89,  3, 40,  0, 33, 88,  6,
       78,  4, 44,  0, 88,  0, 37,  4,  0,  0,  0, 36, 39, 43, 45,  2, 37,
       39,  0,  1, 43, 87, 75,  6, 46,  0,  1, 36, 75, 44, 43,  0, 43,  0,
        1, 47, 49, 36, 89, 80, 41,  9, 36,  1, 89, 43])}], 'clusters': array([2, 0, 2, 1, 1, 2, 1, 2, 1, 0, 1, 2, 1, 1, 2, 2, 2, 2, 2, 2, 1, 1,
       2, 2, 2, 2, 1, 2, 2, 2, 2, 2, 2, 2, 2, 2, 1, 1, 0, 2, 2, 2, 2, 2,
       2, 2, 2, 2, 2, 2, 2, 2, 2, 1, 2, 2, 2, 2, 0, 2, 1, 2, 0, 2, 1, 2,
       2, 2, 2, 0, 2, 2, 2, 1, 0, 2, 2, 2, 1, 1, 1, 1, 2, 2, 2, 2, 2, 0,
       0, 0, 2, 2, 2, 2, 0, 1, 0, 1, 1, 0, 2, 2, 0, 2, 2, 2, 2, 0, 2, 2,
       0, 0, 2, 1, 2, 1, 1, 0, 2, 0, 2, 1, 2, 0, 2, 2, 2, 2, 2, 1, 0, 2,
       2, 2, 2, 2, 2, 2, 1, 1, 2, 2, 2, 2, 2, 2, 2, 2, 2, 0, 0, 2, 0, 2,
       2, 2, 1, 2, 2, 2, 2, 0, 1, 2, 2, 0, 2, 2, 2, 2, 2, 2, 2, 0, 2, 2,
       2, 2, 2, 0, 2, 2, 0, 2, 2, 2, 2, 1, 0, 0, 2, 0, 2, 1, 1, 2, 2, 2,
       2, 2]), 'time': 122.09810042381287}, 24: {'RI': 0.5201005025125628, 'num_clusters': 4, 'uShapelets': [{'ts_index': 110, 'loc': 29, 'gap': 0.6510181213346096, 'distances': array([2.75423846, 2.67111675, 2.14894613, 3.92977975, 4.82381962,
       3.74227883, 2.62891858, 2.80632167, 2.76108013, 2.85436588,
       3.72606262, 2.59008671, 5.18844821, 3.35337733, 3.33794458,
       2.45481708, 3.25308388, 2.91182821, 3.17537308, 2.49947808,
       3.35940808, 3.41583975, 3.44333167, 1.86749883, 2.15880008,
       2.42846142, 2.37729058, 3.02165521, 3.5125515 , 4.10398112,
       4.17746804, 4.19983358, 1.61286154, 2.93776808, 3.29050963,
       3.085126  , 2.14410108, 3.03916846, 2.86160554, 3.27768775,
       1.64359992, 3.12712242, 4.28059846, 2.91550296, 4.25114158,
       3.81513221, 4.51713763, 3.51811846, 2.81144942, 2.48686342,
       5.38028858, 2.91338967, 3.30760558, 3.28419275, 2.62745112,
       2.63578175, 4.24444037, 2.80406658, 2.26734129, 2.585909  ,
       4.60368692, 2.91062242, 3.19458629, 2.76526396, 2.92920938,
       3.62986483, 3.04767688, 2.88032325, 4.63293233, 3.1661505 ,
       5.09272558, 5.50379104, 2.02768433, 5.08301167, 4.88457133,
       3.09152542, 2.15291575, 3.62768154, 2.93470658, 3.14568163,
       2.20975875, 6.49495333, 5.46970508, 2.68442963, 3.04851137,
       3.77315092, 4.28618292, 3.03598508, 2.00131933, 3.87902004,
       2.06010804, 4.70915062, 3.59641179, 2.89353117, 2.97265596,
       5.07440471, 4.20171392, 2.69840563, 3.57444621, 3.40885058,
       4.15737508, 2.87199675, 2.56971971, 5.14121596, 4.24472921,
       3.51334054, 3.07545029, 3.44256342, 3.25454508, 3.72595067,
       0.        , 3.09189033, 3.57730583, 2.32055604, 2.04719021,
       4.12481571, 4.51336588, 2.75015758, 2.82895533, 3.21484725,
       3.06763679, 2.84283646, 4.60394763, 4.47062037, 3.25738083,
       2.68311217, 4.56523242, 2.46980813, 5.54458233, 4.05867   ,
       3.03323062, 3.43031975, 3.32157296, 2.08907125, 3.38152458,
       2.87651996, 3.15771092, 1.903244  , 1.735499  , 3.22171487,
       2.94586325, 2.53064463, 2.86548413, 2.54336092, 3.58004383,
       2.95144117, 3.56019525, 2.07660779, 3.83806383, 2.67028946,
       3.49846587, 3.60424908, 4.371039  , 4.18000383, 3.42631867,
       4.43673029, 2.60839325, 1.93527725, 3.50007462, 2.95236762,
       3.45041463, 1.79715038, 3.17221533, 2.91669042, 3.48776225,
       2.77899733, 2.33806446, 2.79951463, 4.80380383, 4.28122929,
       2.11949375, 4.07959583, 2.40556283, 3.58707763, 2.92860204,
       3.97953275, 3.56292688, 4.54015263, 3.46802329, 3.18189233,
       2.70413862, 3.00568875, 3.89009896, 4.19538442, 2.31306996,
       4.94499117, 2.22590329, 3.33872683, 2.9577745 , 3.12388158,
       3.01674475, 2.43193354, 3.29661925, 1.78923521, 2.94400525,
       2.32170504, 3.6179525 , 2.58509879, 2.93521346, 4.12276579]), 'delta_distances': array([ 6.95169267,  7.064818  ,  6.6485115 ,  8.71404492,  9.687777  ,
        8.27056008,  7.11797125,  6.68324892,  8.30025458,  6.66038642,
        8.71325675,  7.95909525, 11.44521792,  6.71536158,  7.00384742,
        7.20769817,  8.47379783,  8.40183742,  8.84934208,  6.13462683,
        8.02366292,  8.846177  ,  6.38521533,  5.84338275,  6.04096725,
        7.3789245 ,  6.60028425,  8.51239858,  8.56528033, 10.07225008,
       10.63618642,  9.67241475,  5.183954  ,  7.14867025,  8.23089133,
        6.36141558,  6.55744158,  8.03995525,  6.82497458,  7.62520008,
        4.49484275,  7.26718583, 10.51604558,  8.10825158,  8.46591475,
        8.9874505 , 10.03197633,  8.872736  ,  7.75777892,  7.39850042,
       10.50445883,  6.49621167,  9.61342217,  6.94852267,  7.70438192,
        6.81849783,  8.14305983,  7.70338483,  5.72360458,  5.703655  ,
        7.57251325,  8.11861717,  7.64490317,  8.25319058,  5.31510717,
        6.91258158,  8.435963  ,  7.82934858, 10.21602167,  7.14605483,
        9.26468292,  9.57821333,  5.8322265 , 11.21250975, 10.76622775,
        7.54210183,  6.65186   ,  8.97116342,  9.11146158,  7.49658975,
        6.55921758, 10.89273267,  9.61141817,  7.29233158,  7.38865608,
        8.27928208,  9.5602385 ,  6.86020417,  4.42341858,  8.01472908,
        5.40090508,  9.62239942,  7.02307417,  7.2897965 ,  6.61868633,
       10.19606633,  9.88945083,  6.06309008,  9.27038983,  7.68008808,
        9.67463592,  6.624555  ,  5.289318  , 10.46509825,  9.85487542,
        8.060856  ,  8.51093325,  7.76924083,  6.69978525,  8.20339217,
        0.        ,  6.34059317,  6.41299475,  6.57704042,  6.31772942,
        8.73739575,  8.83078592,  9.79748375,  6.80111725,  6.20412275,
        8.65292942,  6.87795733, 10.35905375,  8.93619133,  9.58764275,
        5.789874  ,  9.78356058,  6.37681175, 13.06908275,  9.66960033,
        6.79874392,  7.52554667,  7.46582367,  5.6051625 ,  7.08029258,
        7.64129492,  7.31750067,  5.67008967,  5.19074375,  6.79512958,
        7.32544742,  6.64764075,  5.84107383,  5.61111467,  8.52994758,
        7.92237758,  7.58594592,  6.91618175, 10.049786  ,  5.37570742,
        8.80470233,  9.65380158,  9.36929642,  8.26475883,  8.87600292,
        9.13654367,  6.50112933,  5.79126292,  8.93539275,  6.706215  ,
        7.34160767,  5.48801717,  6.91398108,  7.35724408,  7.64204625,
        5.96405525,  6.20336525,  7.80628258,  8.4073675 ,  9.31410158,
        6.96945992,  8.57838108,  7.34766275,  8.48515408,  7.688255  ,
        7.88792925,  9.70233158, 10.1903385 ,  7.61251392,  7.33241083,
        6.07779358,  7.07858758,  9.15140117,  9.858142  ,  5.7137135 ,
       10.10430583,  6.02999817,  8.66247167,  6.89221067,  8.26264242,
        8.53714942,  7.80074458,  8.35413783,  5.86045142,  6.0294795 ,
        5.33506175,  8.28137675,  7.37447142,  6.04076258,  7.76071942]), 'locations': array([24, 12, 35, 21, 43, 16, 33, 21, 19, 36, 13, 20,  0, 40, 37, 29, 27,
       26,  6, 12,  6, 15, 28, 21, 15, 16, 24, 23, 12, 22, 24, 17, 37, 18,
       17, 38, 24, 24,  5, 33, 24, 19, 15, 27, 13, 16, 21, 33, 27, 12, 25,
        9, 32, 38, 12, 21, 25, 31, 15, 34, 40, 17, 19, 25, 45, 45, 20, 22,
       26, 23, 16, 33, 23, 14, 15, 23, 23, 25, 24, 28, 26, 27,  4, 26, 41,
       18, 13, 35, 26, 17, 18,  6, 33, 26, 38, 14, 20, 33, 12, 31, 31, 18,
       32, 27, 18, 22, 33, 26, 21, 19, 29, 24, 17, 24, 35, 22, 27, 26, 22,
       33, 21, 25, 20,  6, 24, 15, 23, 37, 22, 17, 25, 22, 23, 25, 23, 14,
       19, 22, 35, 23, 26, 38, 21, 34, 19, 21, 12, 32, 24, 18, 24, 24, 17,
        5, 29, 22, 12, 36, 18, 25, 21, 17, 41, 20, 19, 16, 22, 18, 12, 26,
       29, 19, 28, 25, 22, 20, 25, 18, 24, 26, 20, 16, 23, 22, 39, 38,  9,
       20, 18, 19, 33, 22, 19, 31, 32, 35, 12, 23, 25, 12])}, {'ts_index': 126, 'loc': 25, 'gap': 0.5822004917935613, 'distances': array([4.91193125, 5.97821571, 3.50155354, 4.39480179, 1.9875515 ,
       4.25386137, 3.99828133, 3.67503871, 5.10271308, 2.87837421,
       4.87025154, 4.18031733, 4.80567067, 3.17627125, 5.49636246,
       4.71155258, 3.5679795 , 4.11147054, 5.10878371, 4.010617  ,
       4.460318  , 2.60257338, 5.82859221, 3.09572788, 4.2080235 ,
       0.        , 2.94123854, 2.63329629, 2.41109946, 3.5862965 ,
       4.17938171, 2.21973654, 4.60666142, 4.92848233]), 'delta_distances': array([ 4.86783583,  8.15613742,  8.2293855 ,  6.09443658,  6.95849883,
        6.77097908, 10.89821808,  8.777489  ,  5.22875375,  6.42775825,
        7.31045733,  8.89554608,  5.97561   ,  5.7659325 ,  6.849013  ,
        7.56865042,  6.35113675, 10.01921192,  9.58449242,  6.498111  ,
        8.22380475,  7.56277   ,  7.11578567,  6.46297408,  5.87011783,
        0.        ,  6.25846125,  6.80735533,  6.03252075,  6.854483  ,
        7.50776958,  6.74250617,  7.49739092,  7.21245358]), 'locations': array([44, 35, 19, 19, 26, 26, 28, 33, 57, 29, 43, 32, 53, 31, 35, 18, 34,
       27, 29, 32, 30, 27, 47, 29, 63, 25, 21, 26, 27, 25, 21, 27, 33, 45])}, {'ts_index': 42, 'loc': 13, 'gap': 0.5029346782002961, 'distances': array([4.46807617, 4.14430858, 2.76109917, 0.        , 3.15598971,
       3.18697733, 3.81399058, 4.37429542, 3.00111467, 2.92001842,
       3.56409029, 4.94692629, 3.44253858, 3.53260413, 4.60275708,
       2.77780746, 3.72431767, 3.64338429, 3.12230008, 3.05692008,
       2.35746563, 1.73616237, 3.25049887, 4.58294454]), 'delta_distances': array([5.65255617, 7.30477717, 5.37147967, 0.        , 7.15084392,
       5.95381308, 7.92103892, 9.02160542, 5.93554483, 7.91067392,
       7.18316533, 7.6974295 , 6.66211008, 6.7898225 , 6.13196875,
       5.46357025, 6.32597717, 7.96497292, 6.94420242, 4.562375  ,
       7.27656783, 5.29805367, 6.3495505 , 5.345137  ]), 'locations': array([45, 12, 10, 13, 21, 18, 23, 33, 17, 23, 15, 10, 12, 23, 57, 16, 24,
       23, 19, 16, 17, 18, 18, 35])}, {'ts_index': 81, 'loc': 13, 'gap': 1.0374629605612604, 'distances': array([5.17210929, 6.48333963, 0.        , 7.59038013, 6.28128879]), 'delta_distances': array([ 7.84407342,  8.81445533,  0.        ,  9.92460425, 11.05655467]), 'locations': array([12, 26, 13, 10, 22])}], 'clusters': array([1, 1, 1, 1, 4, 1, 1, 1, 1, 1, 1, 1, 3, 1, 1, 1, 1, 1, 1, 1, 1, 1,
       1, 1, 1, 1, 1, 1, 1, 1, 1, 3, 1, 1, 1, 1, 1, 1, 1, 1, 1, 1, 3, 1,
       2, 1, 3, 1, 1, 1, 3, 1, 1, 1, 1, 1, 3, 1, 1, 1, 0, 1, 1, 1, 1, 1,
       1, 1, 2, 1, 3, 3, 1, 3, 2, 1, 1, 1, 1, 1, 1, 4, 3, 1, 1, 1, 3, 1,
       1, 1, 1, 0, 1, 1, 1, 3, 3, 1, 1, 1, 1, 1, 1, 3, 2, 1, 1, 1, 1, 1,
       1, 1, 1, 1, 1, 1, 3, 1, 1, 1, 1, 1, 2, 3, 1, 1, 2, 1, 2, 1, 1, 1,
       1, 1, 1, 1, 1, 1, 1, 1, 1, 1, 1, 1, 1, 1, 1, 1, 1, 1, 1, 1, 2, 1,
       1, 2, 1, 1, 1, 1, 1, 1, 1, 1, 1, 1, 1, 1, 3, 3, 1, 1, 1, 1, 1, 1,
       1, 2, 1, 1, 1, 1, 1, 3, 1, 0, 1, 1, 1, 1, 1, 1, 1, 1, 1, 1, 1, 1,
       1, 1]), 'time': 55.88370966911316}}, 'ED': {24: {'RI': 0.5120100502512562, 'num_clusters': 3, 'uShapelets': [{'ts_index': 142, 'loc': 19, 'gap': 0.034379846508033385, 'distances': array([0.30363493, 0.25251606, 0.22838531, 0.31380077, 0.30602061,
       0.244172  , 0.28921991, 0.22809777, 0.29416288, 0.23257616,
       0.26830966, 0.21377888, 0.29409838, 0.27065766, 0.21483555,
       0.35150629, 0.26823381, 0.25780384, 0.28208343, 0.20400192,
       0.30442652, 0.26063159, 0.34396264, 0.28213067, 0.24191347,
       0.18531136, 0.2194269 , 0.32206987, 0.28931055, 0.33769018,
       0.36085822, 0.27381966, 0.25980288, 0.30217533, 0.27121365,
       0.30294276, 0.25657466, 0.25052941, 0.31412488, 0.29175364,
       0.23224374, 0.23709459, 0.31920454, 0.23686842, 0.2907813 ,
       0.24126826, 0.35338002, 0.25428174, 0.21154576, 0.25472328,
       0.35991513, 0.23702762, 0.26165641, 0.25273674, 0.22711525,
       0.22257975, 0.33625641, 0.30003665, 0.1681268 , 0.23519759,
       0.30697804, 0.33431425, 0.19997392, 0.247232  , 0.14900987,
       0.2290906 , 0.29672728, 0.22748811, 0.28589882, 0.22290451,
       0.30108695, 0.37104646, 0.27269622, 0.31998071, 0.26124432,
       0.22986118, 0.22920911, 0.22249321, 0.25548965, 0.27370136,
       0.35088502, 0.34931829, 0.34209976, 0.2896599 , 0.25716478,
       0.3383555 , 0.32613572, 0.24750893, 0.19450681, 0.25356252,
       0.24427888, 0.33296317, 0.25344511, 0.28710475, 0.28486217,
       0.32924536, 0.30568714, 0.23858687, 0.35477954, 0.2933618 ,
       0.30352682, 0.22647385, 0.19395948, 0.29357126, 0.23012566,
       0.21088159, 0.25995915, 0.27492241, 0.25559808, 0.27196619,
       0.30711005, 0.21516013, 0.22490217, 0.33943259, 0.18521872,
       0.33808531, 0.35972661, 0.28278066, 0.25583125, 0.29424137,
       0.24992403, 0.33183141, 0.28004084, 0.28661607, 0.31230562,
       0.19229711, 0.29020723, 0.26226071, 0.34806273, 0.24156681,
       0.2184412 , 0.24504916, 0.25882932, 0.1930156 , 0.22684672,
       0.25183349, 0.21948952, 0.22636923, 0.20413604, 0.21933776,
       0.23328961, 0.22094662, 0.        , 0.17553674, 0.31746367,
       0.22925793, 0.24995801, 0.23117257, 0.31842404, 0.20952121,
       0.25166916, 0.27284595, 0.26141292, 0.2277517 , 0.25243928,
       0.30497662, 0.19839532, 0.21460113, 0.2651117 , 0.27591903,
       0.27176767, 0.23902073, 0.20207879, 0.1998965 , 0.2948093 ,
       0.150272  , 0.198231  , 0.24302637, 0.26254516, 0.32671591,
       0.18794792, 0.3173421 , 0.26389179, 0.26798522, 0.24040889,
       0.26202505, 0.2711472 , 0.26693855, 0.27196027, 0.33089496,
       0.21047753, 0.25394766, 0.26246924, 0.25534167, 0.2322682 ,
       0.33081105, 0.2488374 , 0.26814652, 0.23134249, 0.2535556 ,
       0.23444389, 0.25022173, 0.21911338, 0.28716832, 0.30356077,
       0.22854384, 0.24979602, 0.26353553, 0.16280433, 0.21882668]), 'delta_distances': array([0., 0., 0., 0., 0., 0., 0., 0., 0., 0., 0., 0., 0., 0., 0., 0., 0.,
       0., 0., 0., 0., 0., 0., 0., 0., 0., 0., 0., 0., 0., 0., 0., 0., 0.,
       0., 0., 0., 0., 0., 0., 0., 0., 0., 0., 0., 0., 0., 0., 0., 0., 0.,
       0., 0., 0., 0., 0., 0., 0., 0., 0., 0., 0., 0., 0., 0., 0., 0., 0.,
       0., 0., 0., 0., 0., 0., 0., 0., 0., 0., 0., 0., 0., 0., 0., 0., 0.,
       0., 0., 0., 0., 0., 0., 0., 0., 0., 0., 0., 0., 0., 0., 0., 0., 0.,
       0., 0., 0., 0., 0., 0., 0., 0., 0., 0., 0., 0., 0., 0., 0., 0., 0.,
       0., 0., 0., 0., 0., 0., 0., 0., 0., 0., 0., 0., 0., 0., 0., 0., 0.,
       0., 0., 0., 0., 0., 0., 0., 0., 0., 0., 0., 0., 0., 0., 0., 0., 0.,
       0., 0., 0., 0., 0., 0., 0., 0., 0., 0., 0., 0., 0., 0., 0., 0., 0.,
       0., 0., 0., 0., 0., 0., 0., 0., 0., 0., 0., 0., 0., 0., 0., 0., 0.,
       0., 0., 0., 0., 0., 0., 0., 0., 0., 0., 0., 0., 0.]), 'locations': array([19, 21, 35, 19, 15, 16, 32, 17, 19, 34, 11, 16,  1, 11, 48, 27, 18,
       22,  9, 10, 50, 13,  8, 21, 13, 13, 33, 22,  9, 17, 15, 19, 39, 18,
       22, 19, 20, 20, 44, 34, 22, 24, 12, 23, 15, 16, 23, 32, 23, 10, 21,
        5, 23, 37, 10, 19, 25, 10, 15, 36, 32, 26, 19, 28, 43, 34, 16, 19,
       19, 17, 17, 20, 21, 11, 17, 22, 21, 21, 20, 20, 63, 10,  5, 22, 49,
       21, 14, 35, 25, 18, 20, 50, 37, 22, 36, 16, 23, 43, 55, 31, 12, 14,
       33, 16, 16, 17, 38, 24, 16, 14, 38, 20, 15, 20, 33, 18, 10, 22, 18,
       33, 13, 21, 17,  6, 22, 13, 14,  9, 10, 13, 21, 15, 21, 21, 19, 13,
       14, 20, 32, 20, 29, 34, 19, 33, 15, 17,  9, 38, 23, 16, 20, 19, 14,
        7, 16, 15, 14, 32, 18, 18, 20, 13, 37, 17, 17, 14, 18, 13, 14, 15,
       26, 20, 28, 17, 18, 10, 17, 14, 15, 15, 16, 12, 15, 10, 39, 35, 11,
       18, 16, 16, 42, 24, 17, 27, 24, 30, 10, 27, 21, 14])}, {'ts_index': 148, 'loc': 12, 'gap': 0.021480786832460685, 'distances': array([0.28552485, 0.27005189, 0.24311452, 0.28880561, 0.36603087,
       0.26079931, 0.44346885, 0.27356792, 0.31770369, 0.3616318 ,
       0.39762677, 0.38645546, 0.37395588, 0.29176819, 0.35599629,
       0.34610413, 0.35838944, 0.29623438, 0.41871322, 0.44244778,
       0.37705761, 0.33731742, 0.28537887, 0.30131377, 0.28238156,
       0.21435697, 0.28922526, 0.2565597 , 0.28752444, 0.        ,
       0.31172633, 0.33615595, 0.27986857, 0.36091249]), 'delta_distances': array([0., 0., 0., 0., 0., 0., 0., 0., 0., 0., 0., 0., 0., 0., 0., 0., 0.,
       0., 0., 0., 0., 0., 0., 0., 0., 0., 0., 0., 0., 0., 0., 0., 0., 0.]), 'locations': array([15,  7,  9, 11, 10, 12, 38,  3, 12, 13, 17,  9, 13, 11, 14,  9,  3,
       17, 13, 49,  6,  8, 12,  9, 10, 13, 12, 10, 10, 12,  8,  9,  9,  9])}], 'clusters': array([1, 1, 1, 2, 1, 1, 1, 1, 1, 1, 1, 1, 1, 1, 1, 2, 1, 1, 1, 1, 1, 1,
       2, 1, 1, 1, 1, 2, 1, 2, 2, 1, 1, 1, 1, 1, 1, 1, 0, 1, 1, 1, 2, 1,
       1, 1, 2, 1, 1, 1, 2, 1, 1, 1, 1, 1, 0, 1, 1, 1, 1, 0, 1, 1, 1, 1,
       1, 1, 1, 1, 1, 2, 1, 2, 1, 1, 1, 1, 1, 1, 2, 2, 2, 1, 1, 2, 0, 1,
       1, 1, 1, 0, 1, 1, 1, 0, 1, 1, 2, 1, 1, 1, 1, 1, 1, 1, 1, 1, 1, 1,
       1, 1, 1, 2, 1, 2, 2, 1, 1, 1, 1, 2, 1, 1, 2, 1, 1, 1, 2, 1, 1, 1,
       1, 1, 1, 1, 1, 1, 1, 1, 1, 1, 1, 1, 2, 1, 1, 1, 2, 1, 1, 1, 1, 1,
       1, 1, 1, 1, 1, 1, 1, 1, 1, 1, 1, 1, 1, 1, 1, 2, 1, 2, 1, 1, 1, 1,
       1, 1, 1, 2, 1, 1, 1, 1, 1, 2, 1, 1, 1, 1, 1, 1, 1, 1, 1, 1, 1, 1,
       1, 1]), 'time': 37.88799238204956}}}