{'FOTS': {5: {'RI': 0.4612562814070352, 'num_clusters': 13, 'uShapelets': [{'ts_index': 27, 'loc': 35, 'gap': 0.1348545636012241, 'distances': array([0.16810213, 0.30278967, 0.27884169, 0.27217802, 0.43806581,
       0.35055299, 0.31992304, 0.37974668, 0.28731577, 0.27133446,
       0.06635717, 0.34381512, 0.2857238 , 0.40151246, 0.39275566,
       0.23228363, 0.21831635, 0.42962256, 0.44898502, 0.30683038,
       0.27550582, 0.07001967, 0.27006803, 0.3479412 , 0.22904473,
       0.39406021, 0.07105143, 0.        , 0.34215696, 0.34806199,
       0.4257293 , 0.36346532, 0.418923  , 0.42444966, 0.32088733,
       0.11141067, 0.37952962, 0.13419442, 0.06349464, 0.36626841,
       0.29727189, 0.35180854, 0.29644422, 0.40840257, 0.30828433,
       0.4043443 , 0.26397785, 0.48468037, 0.39462792, 0.22169221,
       0.34373254, 0.22787255, 0.3658911 , 0.09921067, 0.26966744,
       0.36415905, 0.28954858, 0.28677161, 0.17454323, 0.15712218,
       0.39509148, 0.18233675, 0.4196114 , 0.39289803, 0.40783427,
       0.33433608, 0.36224296, 0.35579297, 0.12808115, 0.24817242,
       0.05740292, 0.36643518, 0.08072104, 0.24389149, 0.29775962,
       0.4094162 , 0.12643406, 0.16478258, 0.18784688, 0.32005906,
       0.08530413, 0.44292576, 0.32473528, 0.4546271 , 0.4007762 ,
       0.40721517, 0.43987453, 0.43917154, 0.40499276, 0.40881882,
       0.34337773, 0.22488469, 0.41150258, 0.1705334 , 0.05121157,
       0.33339438, 0.30769995, 0.13790004, 0.41620376, 0.30677819,
       0.23103664, 0.13380524, 0.11714061, 0.38101883, 0.40262689,
       0.06474953, 0.39023676, 0.20222899, 0.37804221, 0.20637904,
       0.02959614, 0.4150302 , 0.15756725, 0.4003488 , 0.37680523,
       0.40520627, 0.25049066, 0.35589926, 0.40155023, 0.33952811,
       0.44729628, 0.44566471, 0.11937828, 0.31400221, 0.14451162,
       0.45564093, 0.30600454, 0.43677498, 0.30096559, 0.31120667,
       0.13330054, 0.24908109, 0.02067307, 0.11562937, 0.3299772 ,
       0.18632377, 0.07619096, 0.06902221, 0.39274932, 0.32921679,
       0.40343479, 0.12578697, 0.22246251, 0.41925736, 0.28062044,
       0.28243879, 0.33332673, 0.1260019 , 0.41210814, 0.41354454,
       0.25313154, 0.37574593, 0.37549278, 0.40680808, 0.12969814,
       0.38224185, 0.07339742, 0.13903531, 0.36426657, 0.07217296,
       0.32839534, 0.03117945, 0.06740003, 0.40028296, 0.35064031,
       0.32420444, 0.39921779, 0.34540661, 0.41464446, 0.17969169,
       0.45548532, 0.38793628, 0.44162309, 0.3947791 , 0.24210865,
       0.34956684, 0.37506624, 0.31336639, 0.25400866, 0.04982015,
       0.37045442, 0.31058288, 0.41970405, 0.08450377, 0.39816166,
       0.28065746, 0.32504235, 0.3699692 , 0.34175514, 0.37201909,
       0.36717804, 0.06340814, 0.26935576, 0.33969638, 0.42719623,
       0.44379629, 0.28983151, 0.12087098, 0.39762033, 0.18790172]), 'delta_distances': array([0., 0., 0., 0., 0., 0., 0., 0., 0., 0., 0., 0., 0., 0., 0., 0., 0.,
       0., 0., 0., 0., 0., 0., 0., 0., 0., 0., 0., 0., 0., 0., 0., 0., 0.,
       0., 0., 0., 0., 0., 0., 0., 0., 0., 0., 0., 0., 0., 0., 0., 0., 0.,
       0., 0., 0., 0., 0., 0., 0., 0., 0., 0., 0., 0., 0., 0., 0., 0., 0.,
       0., 0., 0., 0., 0., 0., 0., 0., 0., 0., 0., 0., 0., 0., 0., 0., 0.,
       0., 0., 0., 0., 0., 0., 0., 0., 0., 0., 0., 0., 0., 0., 0., 0., 0.,
       0., 0., 0., 0., 0., 0., 0., 0., 0., 0., 0., 0., 0., 0., 0., 0., 0.,
       0., 0., 0., 0., 0., 0., 0., 0., 0., 0., 0., 0., 0., 0., 0., 0., 0.,
       0., 0., 0., 0., 0., 0., 0., 0., 0., 0., 0., 0., 0., 0., 0., 0., 0.,
       0., 0., 0., 0., 0., 0., 0., 0., 0., 0., 0., 0., 0., 0., 0., 0., 0.,
       0., 0., 0., 0., 0., 0., 0., 0., 0., 0., 0., 0., 0., 0., 0., 0., 0.,
       0., 0., 0., 0., 0., 0., 0., 0., 0., 0., 0., 0., 0.]), 'locations': array([75,  2, 48, 35, 51, 35, 44, 81, 35, 15, 27, 28, 27,  4, 11, 45, 76,
        3, 26, 67, 83, 34, 83, 77, 22, 68,  6, 35, 30, 89,  3, 88, 53, 29,
       31,  6, 52,  1, 16,  7,  3, 58, 76,  1, 88,  3, 48,  3, 85, 69, 88,
       82, 15,  8, 72, 35, 36, 52, 31, 51, 81, 75, 35,  4, 14,  9, 84,  6,
       34, 68,  3,  9, 79, 66, 85, 37, 33, 40,  3, 35, 37, 36, 27,  7, 10,
        4, 16, 67, 38,  2,  1, 15, 54, 33, 89,  8, 69, 53, 28, 42, 11, 85,
       44, 14, 75, 36,  5,  6, 85, 79, 84,  6, 29,  2, 56, 77, 75, 75, 38,
       48,  0, 34, 36, 26, 79, 55, 35,  7,  9, 76, 34, 68, 34,  3, 38, 71,
       29, 36, 48, 79,  6,  6, 36, 14,  2,  3, 58,  4, 70, 84, 81, 38,  9,
       42, 78, 85, 63, 51, 35,  2, 65,  2,  5, 35, 36, 60, 35, 32, 33,  3,
       16,  4, 45,  6, 35,  6, 68, 78, 11,  5, 33, 59,  2,  4, 50,  6, 70,
       78, 77, 63, 55, 37, 37,  8, 42, 12, 28, 38, 37, 36])}, {'ts_index': 85, 'loc': 4, 'gap': 0.13109712828350184, 'distances': array([0.34863988, 0.17502656, 0.37936767, 0.09078942, 0.43851339,
       0.39967016, 0.4009876 , 0.18548973, 0.3686638 , 0.22982594,
       0.13417052, 0.25806399, 0.42553965, 0.2978925 , 0.12034799,
       0.34689897, 0.1535397 , 0.42776061, 0.29422849, 0.35706606,
       0.22350519, 0.30425398, 0.19373523, 0.41003558, 0.39405975,
       0.18080051, 0.2718208 , 0.08677905, 0.38730693, 0.39531361,
       0.15151873, 0.21579926, 0.38346306, 0.2231731 , 0.43101863,
       0.33532756, 0.19506663, 0.04199496, 0.40282679, 0.31374528,
       0.38830386, 0.3106685 , 0.31961796, 0.33829999, 0.3619442 ,
       0.35025241, 0.39000222, 0.32038838, 0.34981333, 0.05310221,
       0.42998719, 0.3988757 , 0.38611677, 0.37981732, 0.38180503,
       0.0627403 , 0.39845412, 0.17283934, 0.41933449, 0.23045034,
       0.06957329, 0.38094416, 0.30438252, 0.34279726, 0.29439634,
       0.23994085, 0.20504261, 0.08486152, 0.26432752, 0.33795438,
       0.39373259, 0.2161027 , 0.        , 0.39431476, 0.4323543 ,
       0.40498725, 0.12561914, 0.10510419, 0.39222273, 0.11644543,
       0.32849343, 0.21409684, 0.27357701, 0.40569348, 0.36829237,
       0.25174318, 0.26097156, 0.12045314, 0.07456121, 0.25405874,
       0.36286263, 0.138136  , 0.38826149, 0.38959888, 0.04765986,
       0.11770557, 0.38181827, 0.36447146, 0.27902629, 0.06477554,
       0.16263869, 0.41586165, 0.4203853 , 0.39438853, 0.28675647,
       0.05881877, 0.43869848, 0.22019331, 0.10615121, 0.33521798,
       0.23536906, 0.40989263, 0.29895939, 0.21333439, 0.03740784,
       0.40546759, 0.4182329 , 0.20310917, 0.2258104 , 0.4181519 ,
       0.38799692, 0.25081363, 0.34134166, 0.06898597, 0.42792478,
       0.444699  , 0.26818825, 0.40273732, 0.34318738, 0.39470837,
       0.4127849 , 0.1997963 , 0.27850773, 0.08317055, 0.40275486,
       0.40352094, 0.4347487 , 0.22212398, 0.41248097, 0.40095702,
       0.08556612, 0.25405038, 0.18072576, 0.27993691, 0.33119226,
       0.40471073, 0.06781156, 0.41009928, 0.30435471, 0.32037356,
       0.41657854, 0.39762154, 0.04344387, 0.40040591, 0.37506117,
       0.19926129, 0.40279007, 0.42294732, 0.31409707, 0.37260186,
       0.40508668, 0.21419701]), 'delta_distances': array([0., 0., 0., 0., 0., 0., 0., 0., 0., 0., 0., 0., 0., 0., 0., 0., 0.,
       0., 0., 0., 0., 0., 0., 0., 0., 0., 0., 0., 0., 0., 0., 0., 0., 0.,
       0., 0., 0., 0., 0., 0., 0., 0., 0., 0., 0., 0., 0., 0., 0., 0., 0.,
       0., 0., 0., 0., 0., 0., 0., 0., 0., 0., 0., 0., 0., 0., 0., 0., 0.,
       0., 0., 0., 0., 0., 0., 0., 0., 0., 0., 0., 0., 0., 0., 0., 0., 0.,
       0., 0., 0., 0., 0., 0., 0., 0., 0., 0., 0., 0., 0., 0., 0., 0., 0.,
       0., 0., 0., 0., 0., 0., 0., 0., 0., 0., 0., 0., 0., 0., 0., 0., 0.,
       0., 0., 0., 0., 0., 0., 0., 0., 0., 0., 0., 0., 0., 0., 0., 0., 0.,
       0., 0., 0., 0., 0., 0., 0., 0., 0., 0., 0., 0., 0., 0., 0., 0., 0.,
       0., 0., 0., 0., 0., 0., 0., 0., 0.]), 'locations': array([76,  2, 50, 34,  5, 35, 44, 87, 34,  9, 30, 27,  3, 70, 43, 80, 36,
       89, 67, 54, 83, 77, 73, 72, 88, 35, 35, 78, 51, 86, 58, 34, 47, 34,
       10, 83,  2, 35,  3, 34,  3, 78, 69, 37, 86, 15, 24, 37, 88,  7, 30,
       50, 59, 75, 36,  3, 59, 80, 79,  2,  2, 49, 74,  6,  5, 44, 36, 76,
        4, 29, 37, 10,  4, 78, 62, 37, 80,  1, 16, 52, 33, 77,  3, 28, 43,
       47, 13,  3,  5, 80,  6,  8, 40, 42,  2,  9,  9,  4, 36, 38, 10, 33,
       36, 80, 84,  2, 45,  9, 77, 76,  9, 28, 48, 35,  6, 80, 48,  2, 88,
       78, 70, 56, 79, 76, 77,  9,  3, 78, 65, 35, 36, 74,  6, 31, 79, 65,
       76, 36, 82, 35, 34, 68,  8, 34,  3,  3, 28,  4, 48, 45, 37, 77,  3,
       31,  8, 77,  4,  5,  8, 28,  6, 34])}, {'ts_index': 107, 'loc': 80, 'gap': 0.12585617274954217, 'distances': array([0.38448457, 0.35403666, 0.39248113, 0.43222487, 0.43699368,
       0.43343181, 0.31799458, 0.30566256, 0.24232239, 0.40396707,
       0.3970464 , 0.34396317, 0.34997339, 0.4279941 , 0.14112571,
       0.28605653, 0.17482973, 0.38807755, 0.25810454, 0.36266873,
       0.35874284, 0.1274479 , 0.12923813, 0.31077411, 0.38487031,
       0.0784521 , 0.22206348, 0.13048131, 0.41324987, 0.40786031,
       0.31542324, 0.42026483, 0.4172101 , 0.30058574, 0.21621331,
       0.43393106, 0.39511591, 0.41783929, 0.42231793, 0.36616038,
       0.3989628 , 0.37459264, 0.42911849, 0.35821752, 0.29701777,
       0.37571715, 0.31050718, 0.37879036, 0.19602418, 0.4207263 ,
       0.14386808, 0.38265197, 0.33009838, 0.4329521 , 0.21841927,
       0.23007017, 0.25618963, 0.02480732, 0.39631809, 0.41919007,
       0.15620625, 0.32674249, 0.452844  , 0.4744627 , 0.35854671,
       0.36483399, 0.11661278, 0.36471546, 0.39368301, 0.37785526,
       0.3405444 , 0.35442449, 0.        , 0.2799926 , 0.21728776,
       0.41344257, 0.34222428, 0.36279153, 0.2126368 , 0.12891628,
       0.39795234, 0.41919065, 0.42025653, 0.16185887, 0.41443984,
       0.31158343, 0.33662166, 0.08720412, 0.43906914, 0.17131584,
       0.32895461, 0.40468542, 0.40245876, 0.12154449, 0.10619274,
       0.4009836 , 0.39641387, 0.23865122, 0.12896267, 0.40774934,
       0.42258517, 0.28333234, 0.40574765, 0.38767093, 0.39905113,
       0.41511043, 0.3350752 , 0.39943494, 0.41897251, 0.39820623,
       0.36305212, 0.24626446, 0.41769907, 0.40304044, 0.32935466,
       0.09840217, 0.24778153, 0.3694361 , 0.44197187, 0.40589059,
       0.28052135, 0.39617241, 0.43012079, 0.41385596, 0.42216717,
       0.39722249, 0.27674849, 0.3941641 , 0.34798769, 0.38125123,
       0.32211743, 0.39164401, 0.11723443]), 'delta_distances': array([0., 0., 0., 0., 0., 0., 0., 0., 0., 0., 0., 0., 0., 0., 0., 0., 0.,
       0., 0., 0., 0., 0., 0., 0., 0., 0., 0., 0., 0., 0., 0., 0., 0., 0.,
       0., 0., 0., 0., 0., 0., 0., 0., 0., 0., 0., 0., 0., 0., 0., 0., 0.,
       0., 0., 0., 0., 0., 0., 0., 0., 0., 0., 0., 0., 0., 0., 0., 0., 0.,
       0., 0., 0., 0., 0., 0., 0., 0., 0., 0., 0., 0., 0., 0., 0., 0., 0.,
       0., 0., 0., 0., 0., 0., 0., 0., 0., 0., 0., 0., 0., 0., 0., 0., 0.,
       0., 0., 0., 0., 0., 0., 0., 0., 0., 0., 0., 0., 0., 0., 0., 0., 0.,
       0., 0., 0., 0., 0., 0., 0., 0., 0., 0., 0., 0., 0., 0.]), 'locations': array([ 3, 33, 47, 53, 89, 78, 87, 34,  9, 27, 16, 70, 23, 52, 28, 54,  6,
       77, 73, 70, 88, 35, 35, 51, 29, 34, 47, 34, 26,  2,  2,  3, 34,  3,
       78, 17, 37, 86,  8,  3, 64, 76, 55,  8, 59, 34, 36, 59, 80, 16,  2,
       49, 74, 18,  5, 43, 36,  4, 28, 33, 55, 50,  0, 70, 16, 36, 83,  3,
       28,  2, 47, 18, 80,  6, 40, 42,  9,  4, 36, 57, 75, 85, 90, 84, 19,
       79, 65,  9, 19,  2, 35, 77, 48, 82, 88, 31,  2, 56, 35,  2, 25,  3,
       78, 35, 35, 75, 74, 35,  3, 65, 43, 66, 22, 36, 68, 35, 34,  3, 34,
       36, 48, 45, 13, 77, 75,  8, 77,  4, 86, 87, 76, 35, 34])}, {'ts_index': 45, 'loc': 3, 'gap': 0.11845352717794605, 'distances': array([0.31015386, 0.38485273, 0.14277446, 0.45387889, 0.31901503,
       0.44316597, 0.39054748, 0.40528934, 0.19744385, 0.43998395,
       0.27429736, 0.39787585, 0.39363077, 0.35743468, 0.31237988,
       0.35760592, 0.29015432, 0.29513151, 0.07531054, 0.35445189,
       0.08573809, 0.15876564, 0.45041777, 0.31372365, 0.10488347,
       0.        , 0.19388528, 0.41451012, 0.36735536, 0.32739672,
       0.35557585, 0.42198071, 0.23736975, 0.26210241, 0.29307849,
       0.35144496, 0.06175665, 0.35955458, 0.29610794, 0.25921787,
       0.11228684, 0.45251529, 0.24208298, 0.31579048, 0.43031888,
       0.14053346, 0.17629895, 0.36731358, 0.12305819, 0.44218382,
       0.44035073, 0.34816255, 0.43376728, 0.13634415, 0.36668768,
       0.12390695, 0.12952323, 0.130521  , 0.37105592, 0.14739479,
       0.32871809, 0.38477819, 0.08749343, 0.10104086, 0.29869383,
       0.21952674, 0.33667081, 0.43891743, 0.43086132, 0.25974188,
       0.35321103, 0.32522127, 0.23966759, 0.24696798, 0.19280953,
       0.10512698, 0.41437528, 0.34399085, 0.30023549, 0.33908386,
       0.3878637 , 0.09724937, 0.09001653, 0.14804531, 0.16828061,
       0.23999829, 0.14612345, 0.35522513, 0.41900102, 0.27474292,
       0.45519671, 0.13108051, 0.36234171, 0.32042465, 0.2973655 ,
       0.35518386, 0.27268129, 0.12976077, 0.10070662, 0.31854464,
       0.0858238 , 0.38356349, 0.17661609, 0.33434277, 0.14044426,
       0.42194784, 0.29418216, 0.17067963, 0.13452653]), 'delta_distances': array([0., 0., 0., 0., 0., 0., 0., 0., 0., 0., 0., 0., 0., 0., 0., 0., 0.,
       0., 0., 0., 0., 0., 0., 0., 0., 0., 0., 0., 0., 0., 0., 0., 0., 0.,
       0., 0., 0., 0., 0., 0., 0., 0., 0., 0., 0., 0., 0., 0., 0., 0., 0.,
       0., 0., 0., 0., 0., 0., 0., 0., 0., 0., 0., 0., 0., 0., 0., 0., 0.,
       0., 0., 0., 0., 0., 0., 0., 0., 0., 0., 0., 0., 0., 0., 0., 0., 0.,
       0., 0., 0., 0., 0., 0., 0., 0., 0., 0., 0., 0., 0., 0., 0., 0., 0.,
       0., 0., 0., 0., 0., 0., 0.]), 'locations': array([61,  3, 47,  2, 89, 44, 82,  3, 49, 12, 16, 11,  3, 70, 54, 77, 42,
       68, 60, 51, 29,  8, 58, 76, 35,  3, 55,  3, 28, 88, 86, 15, 24, 57,
       76, 29, 50, 81, 76, 35, 14, 88, 35, 74, 85, 37,  5, 36, 28, 78, 32,
       50, 82, 78, 77, 35, 28,  2, 47, 50, 35, 69, 77, 34, 75, 36, 57, 80,
        9, 65, 28,  3, 77, 48, 31,  2, 28,  3,  2, 85, 78, 75, 35, 36, 26,
       37,  9, 35, 42, 78,  7, 36,  6,  3, 65, 32, 77, 50, 47, 52, 77, 63,
       55, 78,  4, 86,  7, 57, 35])}, {'ts_index': 142, 'loc': 80, 'gap': 0.10876402973278501, 'distances': array([0.31521848, 0.3915192 , 0.41795567, 0.21353415, 0.40545179,
       0.14035225, 0.13625598, 0.34357566, 0.29432981, 0.27365182,
       0.38559703, 0.41531214, 0.41622856, 0.29528254, 0.35913526,
       0.41629535, 0.41046286, 0.39990911, 0.16597938, 0.4002483 ,
       0.40355055, 0.40908119, 0.1629105 , 0.27471455, 0.26996032,
       0.28065351, 0.26349208, 0.31697133, 0.32969216, 0.15209618,
       0.21859532, 0.35896459, 0.14645678, 0.34951231, 0.38379909,
       0.38852295, 0.40577181, 0.4062196 , 0.38686494, 0.41184539,
       0.34301599, 0.39769823, 0.31142534, 0.35622497, 0.37909006,
       0.40363844, 0.39793843, 0.42710784, 0.37690537, 0.30596752,
       0.41109112, 0.35296785, 0.        , 0.16065881, 0.31951146,
       0.10294689, 0.39249258, 0.31141501, 0.147881  , 0.229406  ,
       0.14703504, 0.38427996, 0.31868897, 0.37644799, 0.36696947,
       0.3537168 , 0.20744172, 0.29025911, 0.32500141, 0.31837132,
       0.40870961, 0.34628972, 0.40490917, 0.4035095 ]), 'delta_distances': array([0., 0., 0., 0., 0., 0., 0., 0., 0., 0., 0., 0., 0., 0., 0., 0., 0.,
       0., 0., 0., 0., 0., 0., 0., 0., 0., 0., 0., 0., 0., 0., 0., 0., 0.,
       0., 0., 0., 0., 0., 0., 0., 0., 0., 0., 0., 0., 0., 0., 0., 0., 0.,
       0., 0., 0., 0., 0., 0., 0., 0., 0., 0., 0., 0., 0., 0., 0., 0., 0.,
       0., 0., 0., 0., 0., 0.]), 'locations': array([76, 33, 32, 89, 72, 78,  3, 12, 50, 11, 76, 54, 83, 77, 42, 34, 68,
       58, 83,  4, 28, 74, 86, 15, 24, 35, 76, 29, 81, 76, 35, 84, 49, 74,
        6,  4, 18, 77, 50, 61, 77, 11, 35, 69, 75, 58, 68, 31,  9, 65, 63,
       89, 80, 48,  4,  3,  2, 83, 78, 35, 65,  6, 78, 50,  6, 76, 35,  3,
       77, 52, 30, 77,  3, 17])}, {'ts_index': 66, 'loc': 35, 'gap': 0.10482913165645086, 'distances': array([0.33181876, 0.29954122, 0.07759937, 0.41522691, 0.278787  ,
       0.09421325, 0.4027325 , 0.25305931, 0.37122148, 0.17052953,
       0.33049182, 0.27115132, 0.35836089, 0.16020495, 0.1070668 ,
       0.10592861, 0.32171736, 0.20962704, 0.12360471, 0.31230399,
       0.11619526, 0.07876237, 0.3477514 , 0.32182723, 0.        ,
       0.36544408, 0.2591882 , 0.24228628, 0.36123523, 0.07625817,
       0.38833595, 0.14384353, 0.32456155, 0.42448674, 0.37350906,
       0.39154792, 0.09204415, 0.38439032, 0.31938742, 0.44150901,
       0.14193001, 0.19052347, 0.13229625, 0.40924987, 0.34383837,
       0.27421749, 0.39736176, 0.24634884, 0.24892414, 0.22102647,
       0.27528335, 0.21802537, 0.12484122, 0.41258675, 0.36192394,
       0.35676026, 0.17619969, 0.31546802, 0.15182012, 0.13122326]), 'delta_distances': array([0., 0., 0., 0., 0., 0., 0., 0., 0., 0., 0., 0., 0., 0., 0., 0., 0.,
       0., 0., 0., 0., 0., 0., 0., 0., 0., 0., 0., 0., 0., 0., 0., 0., 0.,
       0., 0., 0., 0., 0., 0., 0., 0., 0., 0., 0., 0., 0., 0., 0., 0., 0.,
       0., 0., 0., 0., 0., 0., 0., 0., 0.]), 'locations': array([66, 47,  3, 46, 32, 49, 69, 35, 28, 49,  3, 26, 43, 50, 35, 43, 29,
       74, 48, 44, 78,  3, 90, 34, 35, 76, 81, 67, 36,  5, 49,  3, 34,  7,
       84, 74, 90, 34, 68, 28, 60, 33, 63,  2, 37, 41, 78, 84,  5,  3,  6,
       57, 35, 78, 84, 50, 30,  4,  3,  5])}, {'ts_index': 108, 'loc': 35, 'gap': 0.11892968551093769, 'distances': array([0.134233  , 0.27287445, 0.4013283 , 0.41195903, 0.1367319 ,
       0.38424803, 0.47096912, 0.30943755, 0.19048611, 0.30233595,
       0.38716569, 0.43847713, 0.35350163, 0.2664979 , 0.32733413,
       0.40963582, 0.42645243, 0.3689151 , 0.43132441, 0.41740983,
       0.16034753, 0.4050784 , 0.        , 0.18194448, 0.27191162,
       0.37158022, 0.4599926 , 0.1603234 , 0.33859861, 0.34150499,
       0.34887457, 0.14352593, 0.41784442, 0.11579169, 0.44309918,
       0.28851342, 0.28403214, 0.11856798, 0.24821922, 0.38063744]), 'delta_distances': array([0., 0., 0., 0., 0., 0., 0., 0., 0., 0., 0., 0., 0., 0., 0., 0., 0.,
       0., 0., 0., 0., 0., 0., 0., 0., 0., 0., 0., 0., 0., 0., 0., 0., 0.,
       0., 0., 0., 0., 0., 0.]), 'locations': array([ 3,  3,  5, 27, 11, 76, 81, 77, 42, 70, 28, 74,  3, 29, 81, 37,  5,
        6, 37, 50, 77, 47, 35, 30, 36, 68, 71,  3, 84,  2,  3, 37,  5, 78,
        5,  7, 34, 77, 70,  5])}, {'ts_index': 170, 'loc': 42, 'gap': 0.11081923532609925, 'distances': array([0.32755556, 0.3347162 , 0.16408277, 0.14307057, 0.32785862,
       0.25883508, 0.28223467, 0.41849293, 0.09665904, 0.38671429,
       0.14790134, 0.28310407, 0.37715516, 0.25056699, 0.24389004,
       0.29244348, 0.35577337, 0.42791787, 0.38722021, 0.2989261 ,
       0.41780916, 0.08842987, 0.14927667, 0.41828334, 0.        ,
       0.34362775, 0.41756037, 0.42740631, 0.14955977, 0.25446279]), 'delta_distances': array([0., 0., 0., 0., 0., 0., 0., 0., 0., 0., 0., 0., 0., 0., 0., 0., 0.,
       0., 0., 0., 0., 0., 0., 0., 0., 0., 0., 0., 0., 0.]), 'locations': array([64,  8, 32, 35, 82, 78, 43, 43, 36, 73, 90, 34, 33, 81, 67,  9,  7,
       31, 34, 27, 22, 28, 41, 78, 42,  6, 46, 26, 34,  4])}, {'ts_index': 100, 'loc': 11, 'gap': 0.14039939496418624, 'distances': array([0.3922673 , 0.33424541, 0.42853723, 0.40149413, 0.36419315,
       0.37789406, 0.19989639, 0.38281749, 0.1011718 , 0.12807858,
       0.32972368, 0.45321029, 0.39577927, 0.        , 0.44365615,
       0.40625502, 0.45775742, 0.22288128, 0.46164361, 0.40714572,
       0.32327149, 0.33894132]), 'delta_distances': array([0., 0., 0., 0., 0., 0., 0., 0., 0., 0., 0., 0., 0., 0., 0., 0., 0.,
       0., 0., 0., 0., 0.]), 'locations': array([83, 44, 31, 77, 68, 69, 72, 81, 66, 85,  3, 89, 50, 11, 23, 26,  7,
        4, 45,  6,  3,  5])}, {'ts_index': 180, 'loc': 32, 'gap': 0.16079787220060188, 'distances': array([0.24862409, 0.39057905, 0.39497502, 0.36624495, 0.38880712,
       0.07952771, 0.18787112, 0.41895102, 0.43809369, 0.3966969 ,
       0.42163857, 0.41693955, 0.45252082, 0.45121419, 0.44852062,
       0.        , 0.38507476]), 'delta_distances': array([0., 0., 0., 0., 0., 0., 0., 0., 0., 0., 0., 0., 0., 0., 0., 0., 0.]), 'locations': array([33, 44, 70, 77, 70, 28, 81,  3,  3,  9, 84, 26, 47, 55,  6, 32, 77])}, {'ts_index': 6, 'loc': 51, 'gap': 0.13686884287149925, 'distances': array([0.        , 0.06497768, 0.29117775, 0.228054  , 0.28141026,
       0.0514236 , 0.26589696, 0.26350709, 0.23589577, 0.11492144,
       0.23644076, 0.23997585, 0.29333499]), 'delta_distances': array([0., 0., 0., 0., 0., 0., 0., 0., 0., 0., 0., 0., 0.]), 'locations': array([51, 10, 47, 14, 51, 19, 33, 64, 52, 61, 38, 78, 39])}, {'ts_index': 25, 'loc': 72, 'gap': 0.1377409017337441, 'distances': array([0.44311469, 0.        , 0.40424624, 0.43269493, 0.28552046,
       0.42786942, 0.4577433 , 0.42488926, 0.19091603]), 'delta_distances': array([0., 0., 0., 0., 0., 0., 0., 0., 0.]), 'locations': array([36, 72, 36, 50,  7,  2, 52, 68,  6])}, {'ts_index': 123, 'loc': 89, 'gap': 0.1400774845664801, 'distances': array([0.17318636, 0.35104698, 0.17942943, 0.        , 0.18220623,
       0.35274713]), 'delta_distances': array([0., 0., 0., 0., 0., 0.]), 'locations': array([76, 39, 39, 89, 54, 38])}], 'clusters': array([ 7, 10,  4,  2,  6,  5, 11,  5,  5,  4,  1,  2,  8,  6,  7,  2,  8,
        2, 11,  3,  6,  1,  3, 13,  7, 12,  1,  1,  4,  3,  3,  2,  6,  4,
        2,  1,  3,  1,  1,  4,  3,  6,  5,  4,  2,  4,  4,  6,  3, 10,  8,
        5,  6,  1,  9,  6,  6,  2,  8,  4, 10,  5,  5,  2,  4,  3,  6,  3,
        1,  2,  1,  5,  1,  9,  9,  4,  1,  4,  0,  2,  1,  3,  4, 11,  3,
        2,  6, 13,  6,  2,  2,  4,  2,  7,  1,  3,  4,  1,  4,  4,  9,  1,
        1,  4,  2,  1,  2,  3,  7,  2,  1,  3,  7,  2,  2,  4,  4,  3,  2,
        3,  6, 12,  1, 13,  1,  3,  2, 11,  6,  2,  1,  6,  1,  1,  3,  6,
        1,  1,  3,  7,  2,  1,  5,  5,  3,  3,  4,  1,  4,  8,  3,  2,  5,
        8,  1,  9,  1,  1,  5,  1,  4,  1,  1,  4,  4,  4,  7,  2,  4,  5,
        8,  7, 13,  4,  2,  0,  3,  6,  5,  1, 10,  2,  7,  1,  4,  4,  8,
        4,  2,  6,  4,  1, 12,  4,  6,  6,  4,  1,  4,  3]), 'time': 60936.38749718666}}, 'UED': {5: {'RI': 0.5172361809045226, 'num_clusters': 3, 'uShapelets': [{'ts_index': 93, 'loc': 0, 'gap': 0.9433278290305287, 'distances': array([0.171086 , 1.5194164, 1.335387 , 2.4558156, 0.548921 , 0.110915 ,
       2.300726 , 4.009383 , 1.8600138, 0.6335396, 2.9321946, 0.4678192,
       2.8263636, 0.6190006, 0.9425454, 1.2050942, 3.3236382, 3.3449598,
       3.5202902, 0.5033214, 2.9733228, 0.4213986, 0.9347032, 0.3640828,
       0.4134662, 0.4728038, 1.605631 , 1.3806858, 1.6901854, 1.4586876,
       1.3635758, 0.103369 , 0.6426786, 0.4110094, 0.4277524, 0.4025486,
       2.5247332, 3.4526792, 3.4869698, 0.920399 , 0.1840664, 2.581014 ,
       2.168323 , 3.3868126, 0.5610288, 0.490139 , 0.2508116, 2.7695644,
       0.6319208, 0.8768598, 0.8148916, 1.3726102, 0.9369838, 0.899939 ,
       0.8327216, 0.2333846, 0.4057772, 0.6211042, 1.3840762, 0.8214348,
       0.7766492, 0.2304486, 1.2205002, 1.0582816, 1.1877308, 0.8103368,
       0.3691828, 1.930583 , 0.6601486, 1.3845852, 0.107974 , 0.4271314,
       3.6536534, 1.6598388, 1.2817804, 0.4135074, 2.117169 , 1.1521216,
       0.596471 , 0.6390822, 0.119875 , 1.1816268, 0.7916434, 0.6274046,
       0.6817498, 1.210329 , 1.4658256, 1.5345442, 1.6486956, 1.5343758,
       2.8262818, 1.0330178, 0.5268548, 0.       , 1.1154328, 1.1215258,
       1.5706742, 0.4425534, 2.0143268, 2.6795442, 1.2885502, 0.6665918,
       1.643846 , 1.468763 , 0.2888566, 1.855536 , 0.827139 , 0.5770358,
       1.0986166, 1.909778 , 0.8625054, 1.124469 , 0.2142812, 1.4511668,
       0.6058238, 2.6754596, 0.8512982, 0.705232 , 0.8458412, 0.9735604,
       0.9278648, 1.7539666, 0.121783 , 1.9738094, 0.5956298, 1.1028782,
       1.9153524, 0.4166692, 3.4048108, 0.568227 , 0.7190744, 0.9704052,
       1.7044114, 0.3459048, 0.0342458, 2.099038 , 0.4118758, 1.393586 ,
       2.4509314, 0.2572894, 0.9815252, 1.6070342, 1.8761274, 1.1914416,
       2.7889332, 0.4357868, 1.9007734, 0.5308214, 2.146841 , 1.0091728,
       2.545717 , 1.0693476, 2.480803 , 2.6790786, 0.2992798, 0.2716386,
       1.90117  , 1.1419588, 1.4401776, 1.1952986, 0.0314196, 1.573383 ,
       0.3699912, 0.6994774, 2.0070584, 0.705954 , 1.4160776, 1.7968148,
       2.2513564, 0.3992682, 1.093541 , 0.7019182, 1.804835 , 1.6922596,
       2.8737394, 0.6102412, 0.2395954, 0.2350316, 0.1030524, 1.5449382,
       3.2679038, 0.6605178, 0.3694986, 1.9643978, 1.1060476, 1.0494072,
       0.821416 , 0.042474 , 0.5450228, 2.2495974, 0.9238784, 3.0002312,
       0.382935 , 3.1208074, 0.4927038, 0.9412122, 2.7097812, 1.0244856,
       0.883692 , 0.3009622]), 'delta_distances': array([0.0878096, 0.38078  , 0.421048 , 0.2926984, 0.1268332, 0.0578364,
       0.6371952, 0.5826844, 0.2569536, 0.14819  , 0.4088492, 0.1587428,
       0.1902076, 0.2001324, 0.1986068, 0.192012 , 0.35732  , 0.3223588,
       0.3804676, 0.1357952, 0.4338568, 0.133562 , 0.2155208, 0.151524 ,
       0.1263488, 0.1176144, 0.3220072, 0.1893728, 0.202944 , 0.466068 ,
       0.3923144, 0.0531784, 0.2179852, 0.1483396, 0.0850988, 0.1170132,
       0.4132292, 0.411334 , 0.2846064, 0.1372364, 0.0634744, 0.1877728,
       0.429634 , 0.3517864, 0.1664024, 0.2578768, 0.2136196, 0.5045988,
       0.2048688, 0.170972 , 0.2326692, 0.2353108, 0.27897  , 0.1785972,
       0.1756472, 0.072902 , 0.1953308, 0.2048844, 0.3474892, 0.1819304,
       0.1404604, 0.1159992, 0.2937564, 0.2853152, 0.2656248, 0.2638164,
       0.1156808, 0.221524 , 0.2291632, 0.4401828, 0.0571528, 0.1229056,
       0.3405852, 0.3789632, 0.2930596, 0.1580148, 0.3598092, 0.2426232,
       0.2275368, 0.1979828, 0.078552 , 0.1805188, 0.1423736, 0.2229748,
       0.1667204, 0.2375556, 0.2650544, 0.2398732, 0.1981   , 0.2195316,
       0.4211708, 0.1233136, 0.2162228, 0.       , 0.2994448, 0.227802 ,
       0.3243532, 0.1754088, 0.340898 , 0.3054492, 0.4190544, 0.116982 ,
       0.2462324, 0.2924776, 0.0972596, 0.2725292, 0.167794 , 0.1351792,
       0.2154664, 0.3838484, 0.2378744, 0.1414936, 0.1104372, 0.2971304,
       0.1661172, 0.3790536, 0.2571396, 0.2224528, 0.2247588, 0.1689692,
       0.1664528, 0.2996516, 0.0330828, 0.2405672, 0.1745056, 0.1731384,
       0.272542 , 0.1339408, 0.430324 , 0.1416632, 0.2525552, 0.3335284,
       0.2521824, 0.1555624, 0.029996 , 0.3088344, 0.1611188, 0.27863  ,
       0.2283736, 0.1014928, 0.274458 , 0.4130776, 0.282514 , 0.2636372,
       0.6052608, 0.1797116, 0.1707224, 0.1765236, 0.3555256, 0.1814584,
       0.2496532, 0.1531032, 0.4901908, 0.2033832, 0.1326716, 0.1549356,
       0.30611  , 0.195588 , 0.3028232, 0.3267276, 0.0265208, 0.2645104,
       0.1159956, 0.1775548, 0.4139972, 0.1564764, 0.1644532, 0.2981944,
       0.346868 , 0.106744 , 0.320192 , 0.2837228, 0.315716 , 0.2776224,
       0.4342828, 0.1577568, 0.11955  , 0.1326224, 0.048592 , 0.247662 ,
       0.3976364, 0.1306556, 0.0951196, 0.4763032, 0.3321344, 0.2683136,
       0.2314412, 0.034224 , 0.1042516, 0.42486  , 0.2246764, 0.5273984,
       0.1166708, 0.2839808, 0.1752788, 0.2369404, 0.4187532, 0.3653908,
       0.2189412, 0.1211068]), 'locations': array([ 0,  0,  1,  0, 86,  0,  0,  0,  0,  2,  0, 87, 68,  0,  1,  0,  0,
        0,  0, 87, 20,  0,  0,  0, 88, 88,  0,  0,  0,  0,  0,  0,  2,  0,
       88,  1,  0,  0, 21,  0,  0, 70,  0,  5,  1,  0,  0,  0,  0, 89,  0,
       90,  3,  2, 87,  0,  0,  2, 87,  2, 89,  0,  0, 87,  3,  2,  0,  0,
        0,  0,  0,  0, 38,  0,  0,  1,  0,  1,  0,  0,  0,  1, 88,  1,  1,
        1,  0,  2,  0,  0,  4, 89,  2,  0,  0,  0,  0,  2,  0,  0,  2, 88,
        2, 87,  0,  0,  0,  1,  0,  5,  1,  2, 89,  0,  2,  0,  0,  0, 88,
        1, 87,  0,  0, 32,  0, 89,  0, 88, 41,  0,  0,  0,  0,  0,  0,  0,
       88,  0, 81,  0,  1,  1,  0,  2,  0,  0,  4, 88,  0,  0,  0,  0,  0,
       78,  0,  0,  0,  3,  0,  0,  0,  0,  1,  0,  0, 88,  0,  0,  0,  0,
        1,  0,  0,  0,  0,  0,  0,  0,  0,  0,  0, 88,  0,  1,  2,  0,  0,
        0,  0, 89,  2,  0,  1, 72,  0,  1,  0,  1,  0,  0])}, {'ts_index': 148, 'loc': 1, 'gap': 0.872765214516398, 'distances': array([0.7420612, 1.328094 , 0.8966814, 0.2792738, 2.2171502, 0.7628236,
       1.5716494, 2.020787 , 0.6457576, 0.8213672, 0.9860172, 0.8990684,
       2.212588 , 1.1069366, 0.489558 , 1.0027718, 0.554079 , 0.6911346,
       0.3239056, 0.1982638, 2.6976524, 1.0060738, 1.5399064, 0.       ,
       0.2019624, 0.397902 , 2.0693542, 0.1908624, 0.6699082, 1.0900854,
       0.8381084, 1.4411988, 2.559547 , 0.7136406]), 'delta_distances': array([0.251898 , 0.4377996, 0.1972132, 0.0771996, 0.2302596, 0.2275616,
       0.4449332, 0.4386968, 0.1764672, 0.2870796, 0.1762652, 0.3718604,
       0.2878432, 0.2905252, 0.1799784, 0.2861472, 0.2841012, 0.2296988,
       0.1287108, 0.1180972, 0.3923792, 0.2585564, 0.28005  , 0.       ,
       0.0983148, 0.2313388, 0.2257592, 0.1051164, 0.314786 , 0.3630656,
       0.201534 , 0.3323692, 0.2699832, 0.2254216]), 'locations': array([ 1,  1,  0,  1, 70,  1,  1,  0,  0,  1,  1,  0, 73,  2,  1,  1,  1,
        0,  1,  1, 43,  0,  1,  1,  1,  1, 80,  1,  1,  1,  0,  1, 74,  1])}], 'clusters': array([1, 1, 1, 2, 1, 1, 2, 2, 1, 1, 2, 1, 0, 1, 1, 1, 2, 2, 0, 1, 2, 1,
       1, 1, 1, 1, 1, 1, 1, 1, 1, 1, 1, 1, 1, 1, 2, 2, 2, 1, 1, 0, 2, 2,
       1, 1, 1, 2, 1, 1, 1, 1, 1, 1, 1, 1, 1, 1, 1, 1, 1, 1, 1, 1, 1, 1,
       1, 1, 1, 1, 1, 1, 2, 1, 1, 1, 1, 1, 1, 1, 1, 1, 1, 1, 1, 1, 1, 1,
       1, 1, 2, 1, 1, 1, 1, 1, 1, 1, 1, 2, 1, 1, 1, 1, 1, 1, 1, 1, 1, 1,
       1, 1, 1, 1, 1, 2, 1, 1, 1, 1, 1, 1, 1, 1, 1, 1, 1, 1, 0, 1, 1, 1,
       1, 1, 1, 1, 1, 1, 2, 1, 1, 1, 1, 1, 2, 1, 1, 1, 2, 1, 2, 1, 2, 0,
       1, 1, 1, 1, 1, 1, 1, 1, 1, 1, 1, 1, 1, 1, 2, 1, 1, 1, 1, 1, 2, 1,
       1, 1, 1, 1, 2, 1, 1, 1, 1, 1, 1, 1, 1, 2, 1, 2, 1, 0, 1, 1, 2, 1,
       1, 1]), 'time': 4077.0587043762207}, 24: {'RI': 0.5735175879396985, 'num_clusters': 3, 'uShapelets': [{'ts_index': 176, 'loc': 2, 'gap': 0.6633847122379389, 'distances': array([0.11982337, 0.32314688, 0.54199421, 0.36460408, 0.58956254,
       0.20587087, 0.59983129, 0.36202046, 0.33415221, 0.39499883,
       0.69741842, 1.77378837, 1.67714025, 0.52945454, 0.63418246,
       0.40217992, 0.36420487, 0.69053075, 1.64388175, 1.08267   ,
       1.38466571, 0.23327375, 0.57950833, 0.1709865 , 1.37256271,
       1.55421871, 0.59306521, 0.49774233, 0.58530792, 0.37862775,
       0.35443087, 0.419184  , 0.49011129, 0.47811029, 1.78835175,
       0.26063362, 0.559577  , 0.47127637, 1.65116783, 0.34440887,
       0.09585912, 2.10524571, 1.16730125, 0.31812925, 0.3304325 ,
       0.30381125, 0.16104888, 0.46983758, 0.193826  , 1.25106083,
       0.13164567, 1.47550471, 0.40545562, 0.42327708, 1.92799937,
       0.27703354, 0.23830787, 0.41219012, 1.83019662, 0.42344462,
       1.2805985 , 0.41206704, 0.6925325 , 0.38188946, 0.52011421,
       0.52869629, 0.33751467, 0.70977075, 0.13884908, 0.24913171,
       0.15994092, 0.17309792, 0.30980571, 0.36991946, 0.41437642,
       0.39721412, 0.36677063, 0.35777854, 0.21208425, 0.18493308,
       0.23907808, 0.47258963, 2.03968762, 0.19440671, 0.51652329,
       0.47731433, 0.49701488, 0.57718208, 0.3983375 , 0.49526008,
       0.42653487, 1.42007796, 0.423902  , 0.16042717, 0.48171479,
       0.21318667, 0.23945488, 0.43240712, 1.16950275, 0.23592646,
       0.54488271, 1.27682533, 0.51673579, 0.71061042, 0.18315008,
       0.70611317, 0.37228217, 0.30474504, 0.52194575, 0.44771467,
       0.38264812, 0.40180958, 1.65976171, 0.19699137, 0.53281062,
       0.21355837, 0.2277505 , 0.13134683, 1.08259742, 0.44292962,
       1.733558  , 0.67895796, 0.27847146, 0.9146705 , 0.29811462,
       1.61838633, 0.369956  , 1.084826  , 1.2681975 , 0.20101787,
       0.34989592, 0.16005804, 0.26758112, 0.26991046, 0.18209854,
       1.36441217, 1.32720308, 0.25192188, 0.47383125, 0.19993204,
       0.36330062, 0.52789192, 0.48041708, 0.46969362, 1.28041263,
       0.28494362, 0.41374975, 0.61824975, 0.14749   , 0.74923242,
       0.27320317, 0.36888217, 0.39924213, 2.16865392, 0.21896829,
       0.13169308, 1.15789063, 0.42644821, 0.31113817, 0.32712858,
       0.17416312, 0.54906933, 0.33227163, 0.40675358, 0.55897533,
       1.86479196, 0.54404092, 0.56010075, 0.24939983, 0.09012975,
       0.47962379, 0.35470917, 0.66334317, 0.51987225, 0.247475  ,
       0.37386508, 0.        , 0.1843665 , 0.28496721, 0.51395162,
       0.55600433, 1.48476758, 0.08029962, 0.64739796, 0.51682408,
       0.39870767, 1.2773135 , 0.13201396, 0.45365917, 0.47336758,
       0.48687796, 0.555681  , 0.13401079, 1.57246017, 0.38270792,
       0.36625025, 1.20808825, 0.49291712, 0.404374  , 0.57237983]), 'delta_distances': array([0.07237067, 0.09069633, 0.1429185 , 0.09094333, 0.14037183,
       0.06570958, 0.15682892, 0.09737783, 0.11491833, 0.13059917,
       0.17641583, 0.13818442, 0.19385   , 0.13973575, 0.14139708,
       0.11812083, 0.10579717, 0.1296675 , 0.17101333, 0.20361858,
       0.21849842, 0.08745725, 0.14811367, 0.063458  , 0.17367908,
       0.12775358, 0.1230885 , 0.12280308, 0.13638233, 0.13484108,
       0.13627933, 0.09141817, 0.11443525, 0.13706942, 0.15793917,
       0.069418  , 0.12649825, 0.10371483, 0.1788425 , 0.12117825,
       0.041339  , 0.19417158, 0.21756767, 0.12869425, 0.07957383,
       0.13087442, 0.08924983, 0.12549675, 0.07669758, 0.20235008,
       0.05753133, 0.15579392, 0.11467475, 0.14993542, 0.15336242,
       0.10122233, 0.09342717, 0.12736   , 0.15727908, 0.090303  ,
       0.17638867, 0.13745883, 0.20088383, 0.11018933, 0.09066717,
       0.13017517, 0.09675325, 0.13712833, 0.05262808, 0.10548992,
       0.06609225, 0.05508467, 0.10007992, 0.12057342, 0.11874875,
       0.13298758, 0.10070842, 0.09985267, 0.07771833, 0.07024475,
       0.10754658, 0.10337292, 0.17194175, 0.09371108, 0.1524735 ,
       0.107133  , 0.13304858, 0.1183365 , 0.07295867, 0.12555233,
       0.093046  , 0.20627008, 0.12947183, 0.061413  , 0.14888625,
       0.07110283, 0.09616658, 0.10452092, 0.24958017, 0.0798305 ,
       0.13734317, 0.11015483, 0.10685642, 0.11950683, 0.07298642,
       0.12895825, 0.09310642, 0.07631492, 0.11896642, 0.09952925,
       0.06960508, 0.06958025, 0.13626908, 0.07340058, 0.12043825,
       0.07718308, 0.07664208, 0.05199142, 0.18516425, 0.06643658,
       0.15263183, 0.1395515 , 0.052521  , 0.15049175, 0.10821858,
       0.22411225, 0.08639542, 0.13992792, 0.115974  , 0.05953475,
       0.08858508, 0.05740725, 0.0779455 , 0.06405592, 0.07874192,
       0.12260658, 0.12404108, 0.08027458, 0.12183525, 0.07611917,
       0.10016125, 0.14068625, 0.12045358, 0.09776067, 0.2452585 ,
       0.0834885 , 0.08836842, 0.12333808, 0.05650267, 0.13130033,
       0.0740485 , 0.08095783, 0.11194683, 0.200425  , 0.07751342,
       0.0606525 , 0.162493  , 0.10598133, 0.0833665 , 0.1062375 ,
       0.05949683, 0.1119815 , 0.10165975, 0.08675733, 0.11399033,
       0.1845155 , 0.09935592, 0.08688033, 0.07394283, 0.04002783,
       0.12571167, 0.1084385 , 0.11093667, 0.11874375, 0.075287  ,
       0.10483917, 0.        , 0.0777615 , 0.07982183, 0.10225525,
       0.12935475, 0.11589692, 0.045184  , 0.15121258, 0.15183817,
       0.12997875, 0.1747705 , 0.03980883, 0.0883265 , 0.10863475,
       0.11004625, 0.10846142, 0.04886442, 0.18683075, 0.08357658,
       0.08987392, 0.20796542, 0.1477715 , 0.09899592, 0.10221283]), 'locations': array([ 2,  1,  4,  1,  3,  2,  1,  0,  1,  6,  1, 63, 70,  3,  6,  2,  1,
        1, 71,  0, 23,  2,  2,  2, 41, 64,  4,  2,  2,  1,  2,  2,  6,  2,
       57,  4,  1,  0, 23,  4,  2, 43,  0,  1,  3,  2,  2,  1,  2,  1,  2,
       30,  6,  5, 63,  3,  2,  5, 64,  7, 22,  2,  2,  2,  8,  5,  2,  2,
        2,  2,  2,  2,  0,  1,  2,  3,  1,  3,  2,  2,  2,  3, 62,  3,  6,
        3,  4,  6,  2,  2,  0, 22,  5,  2,  2,  2,  1,  8,  1,  1,  4, 64,
        5,  3,  2,  2,  4,  4,  2,  1,  4,  4, 66,  2,  8,  1,  2,  2,  3,
        5, 63,  2,  2,  0,  2,  0,  1,  6,  1,  2,  2,  2,  1,  2,  3, 55,
       65,  1,  1,  2,  5,  4,  1,  5,  1,  2,  1,  3,  1,  1,  1,  2,  1,
        4,  2,  2,  1,  6,  1,  2,  3,  1,  4,  2,  2, 45,  2,  1,  1,  2,
        3,  2,  4,  2,  1,  2,  2,  2,  2,  3,  1, 64,  2,  3,  5,  3,  2,
        2,  2,  0,  6,  1,  3,  0,  3,  4,  0,  3,  2,  2])}, {'ts_index': 144, 'loc': 3, 'gap': 1.4287902807032757, 'distances': array([0.30167771, 1.31899483, 0.16477525, 2.72575442, 0.50103279,
       0.13891783, 0.29328042, 2.62879317, 0.42286492, 0.07321808,
       0.12543596, 2.20919354, 0.32628363, 0.39002908, 2.4123445 ,
       0.11675708, 2.6493125 , 0.16200833, 0.3744465 , 0.48448933,
       0.27050213, 0.09247238, 0.55245862, 0.25628679, 0.25856167,
       0.18387079, 0.        , 0.43576087, 0.20671588, 0.18277825,
       0.16075438, 0.530526  , 0.27812079, 0.24625233]), 'delta_distances': array([0.12141417, 0.21689567, 0.08507408, 0.23517075, 0.16313083,
       0.07238417, 0.15122   , 0.35830292, 0.11879592, 0.05954033,
       0.07188242, 0.22932358, 0.11200058, 0.11906475, 0.22219475,
       0.06924567, 0.29372142, 0.07347042, 0.11260283, 0.14820325,
       0.12302867, 0.05920892, 0.1660365 , 0.08950642, 0.09707858,
       0.07563283, 0.        , 0.11501825, 0.10172583, 0.10064117,
       0.09200008, 0.14247158, 0.11162483, 0.10234917]), 'locations': array([ 1, 13,  3, 37,  3,  1,  3,  0,  3,  4,  3, 66,  0,  4,  0,  1,  0,
        4,  3,  1,  4,  2, 24,  7,  3,  3,  3, 13,  3,  0,  2,  4, 10,  3])}, {'ts_index': 51, 'loc': 0, 'gap': 0.35641943992308756, 'distances': array([2.52548212, 0.68880608, 0.3265205 , 0.        , 1.17629192,
       0.89427225]), 'delta_distances': array([0.284647  , 0.21244675, 0.13485517, 0.        , 0.21884908,
       0.17427258]), 'locations': array([16,  0,  0,  0,  0,  0])}], 'clusters': array([1, 1, 1, 1, 1, 1, 1, 1, 1, 1, 1, 2, 0, 1, 1, 1, 1, 1, 2, 1, 3, 1,
       1, 1, 2, 2, 1, 1, 1, 1, 1, 1, 1, 1, 2, 1, 1, 1, 3, 1, 1, 2, 2, 1,
       1, 1, 1, 1, 1, 2, 1, 3, 1, 1, 2, 1, 1, 1, 2, 1, 0, 1, 1, 1, 1, 1,
       1, 1, 1, 1, 1, 1, 1, 1, 1, 1, 1, 1, 1, 1, 1, 1, 2, 1, 1, 1, 1, 1,
       1, 1, 1, 3, 1, 1, 1, 1, 1, 1, 2, 1, 1, 2, 1, 1, 1, 1, 1, 1, 1, 1,
       1, 1, 2, 1, 1, 1, 1, 1, 1, 1, 2, 1, 1, 1, 1, 2, 1, 2, 2, 1, 1, 1,
       1, 1, 1, 2, 2, 1, 1, 1, 1, 1, 1, 1, 2, 1, 1, 1, 1, 1, 1, 1, 1, 2,
       1, 1, 2, 1, 1, 1, 1, 1, 1, 1, 1, 2, 1, 1, 1, 1, 1, 1, 1, 1, 1, 1,
       1, 1, 1, 1, 1, 2, 1, 1, 1, 1, 2, 1, 1, 1, 1, 1, 1, 2, 1, 1, 2, 1,
       1, 1]), 'time': 2621.519630908966}}, 'ED': {24: {'RI': 0.5735175879396985, 'num_clusters': 3, 'uShapelets': [{'ts_index': 176, 'loc': 2, 'gap': 0.07255815015060885, 'distances': array([0.07065862, 0.11603643, 0.15027672, 0.12325517, 0.15673259,
       0.09261724, 0.15809165, 0.12281769, 0.1179958 , 0.12828985,
       0.1704673 , 0.27185998, 0.26434985, 0.14852813, 0.16255543,
       0.12945075, 0.12318767, 0.16962345, 0.26171563, 0.21239409,
       0.2401966 , 0.09858874, 0.15539041, 0.08440638, 0.23914454,
       0.25447812, 0.15719749, 0.14401133, 0.15616603, 0.12560317,
       0.12152347, 0.132159  , 0.14290313, 0.1411427 , 0.27297373,
       0.10421005, 0.15269482, 0.14013035, 0.26229499, 0.11979303,
       0.06319913, 0.29617321, 0.22053923, 0.11513203, 0.11733721,
       0.11251134, 0.08191685, 0.13991628, 0.08986703, 0.22831455,
       0.07406238, 0.24795032, 0.12997686, 0.13280265, 0.28343131,
       0.10743865, 0.09964685, 0.13105185, 0.27614886, 0.13282894,
       0.23099409, 0.13103229, 0.16986913, 0.12614302, 0.14721218,
       0.14842174, 0.11858799, 0.17197029, 0.07606168, 0.10188468,
       0.08163458, 0.08492593, 0.11361589, 0.12415036, 0.13139895,
       0.12864909, 0.12362083, 0.12209602, 0.09400449, 0.08778123,
       0.09980775, 0.14032546, 0.29152527, 0.09000155, 0.14670311,
       0.14102517, 0.14390606, 0.15507822, 0.12883088, 0.14365179,
       0.13331274, 0.24324867, 0.13290065, 0.08175858, 0.14167374,
       0.09424849, 0.09988637, 0.13422728, 0.2207471 , 0.09914771,
       0.15067663, 0.23065354, 0.14673329, 0.17207198, 0.08735705,
       0.17152662, 0.1245462 , 0.11268412, 0.14747115, 0.13658249,
       0.12626825, 0.12939114, 0.26297669, 0.09059787, 0.14899813,
       0.09433062, 0.0974146 , 0.07397827, 0.21238697, 0.13585066,
       0.26875934, 0.16819606, 0.10771712, 0.19522108, 0.11145153,
       0.25967819, 0.12415649, 0.21260546, 0.22987293, 0.0915191 ,
       0.12074352, 0.08166447, 0.10558984, 0.10604843, 0.08710591,
       0.23843344, 0.23515979, 0.10245362, 0.14050967, 0.09127158,
       0.12303465, 0.14830879, 0.14148279, 0.13989485, 0.23097733,
       0.1089617 , 0.13129955, 0.16050049, 0.07839271, 0.17668621,
       0.10669332, 0.12397617, 0.12897709, 0.30060037, 0.09551795,
       0.07407572, 0.21964845, 0.13329919, 0.11385996, 0.11674912,
       0.08518684, 0.15125438, 0.1176633 , 0.13018474, 0.15261271,
       0.2787466 , 0.15056019, 0.15276626, 0.10193949, 0.06128137,
       0.14136592, 0.12157117, 0.16625071, 0.14717793, 0.10154535,
       0.1248107 , 0.        , 0.08764666, 0.1089662 , 0.14633746,
       0.15220659, 0.24872739, 0.05784304, 0.16424042, 0.14674582,
       0.12889073, 0.23069763, 0.07416591, 0.13748624, 0.14044091,
       0.14243097, 0.15216233, 0.07472471, 0.25596713, 0.12627812,
       0.1235331 , 0.22435911, 0.1433116 , 0.12980338, 0.15443173]), 'delta_distances': array([0., 0., 0., 0., 0., 0., 0., 0., 0., 0., 0., 0., 0., 0., 0., 0., 0.,
       0., 0., 0., 0., 0., 0., 0., 0., 0., 0., 0., 0., 0., 0., 0., 0., 0.,
       0., 0., 0., 0., 0., 0., 0., 0., 0., 0., 0., 0., 0., 0., 0., 0., 0.,
       0., 0., 0., 0., 0., 0., 0., 0., 0., 0., 0., 0., 0., 0., 0., 0., 0.,
       0., 0., 0., 0., 0., 0., 0., 0., 0., 0., 0., 0., 0., 0., 0., 0., 0.,
       0., 0., 0., 0., 0., 0., 0., 0., 0., 0., 0., 0., 0., 0., 0., 0., 0.,
       0., 0., 0., 0., 0., 0., 0., 0., 0., 0., 0., 0., 0., 0., 0., 0., 0.,
       0., 0., 0., 0., 0., 0., 0., 0., 0., 0., 0., 0., 0., 0., 0., 0., 0.,
       0., 0., 0., 0., 0., 0., 0., 0., 0., 0., 0., 0., 0., 0., 0., 0., 0.,
       0., 0., 0., 0., 0., 0., 0., 0., 0., 0., 0., 0., 0., 0., 0., 0., 0.,
       0., 0., 0., 0., 0., 0., 0., 0., 0., 0., 0., 0., 0., 0., 0., 0., 0.,
       0., 0., 0., 0., 0., 0., 0., 0., 0., 0., 0., 0., 0.]), 'locations': array([ 2,  1,  4,  1,  3,  2,  1,  0,  1,  6,  1, 63, 70,  3,  6,  2,  1,
        1, 71,  0, 23,  2,  2,  2, 41, 64,  4,  2,  2,  1,  2,  2,  6,  2,
       57,  4,  1,  0, 23,  4,  2, 43,  0,  1,  3,  2,  2,  1,  2,  1,  2,
       30,  6,  5, 63,  3,  2,  5, 64,  7, 22,  2,  2,  2,  8,  5,  2,  2,
        2,  2,  2,  2,  0,  1,  2,  3,  1,  3,  2,  2,  2,  3, 62,  3,  6,
        3,  4,  6,  2,  2,  0, 22,  5,  2,  2,  2,  1,  8,  1,  1,  4, 64,
        5,  3,  2,  2,  4,  4,  2,  1,  4,  4, 66,  2,  8,  1,  2,  2,  3,
        5, 63,  2,  2,  0,  2,  0,  1,  6,  1,  2,  2,  2,  1,  2,  3, 55,
       65,  1,  1,  2,  5,  4,  1,  5,  1,  2,  1,  3,  1,  1,  1,  2,  1,
        4,  2,  2,  1,  6,  1,  2,  3,  1,  4,  2,  2, 45,  2,  1,  1,  2,
        3,  2,  4,  2,  1,  2,  2,  2,  2,  3,  1, 64,  2,  3,  5,  3,  2,
        2,  2,  0,  6,  1,  3,  0,  3,  4,  0,  3,  2,  2])}, {'ts_index': 42, 'loc': 5, 'gap': 0.14371781023849695, 'distances': array([0.07529489, 0.20588559, 0.05807546, 0.33620684, 0.15189815,
       0.06113657, 0.08638771, 0.3098646 , 0.09035969, 0.        ,
       0.05096436, 0.29974129, 0.0841913 , 0.07726445, 0.28045589,
       0.04764005, 0.29779324, 0.05355344, 0.11345621, 0.10652557,
       0.06764343, 0.05334061, 0.11729055, 0.09420218, 0.0638428 ,
       0.06303453, 0.05107922, 0.09620615, 0.06500222, 0.05609635,
       0.0662442 , 0.12091876, 0.06751297, 0.06508675]), 'delta_distances': array([0., 0., 0., 0., 0., 0., 0., 0., 0., 0., 0., 0., 0., 0., 0., 0., 0.,
       0., 0., 0., 0., 0., 0., 0., 0., 0., 0., 0., 0., 0., 0., 0., 0., 0.]), 'locations': array([ 3, 13,  4, 37,  4,  3,  3,  0,  5,  5,  4, 66,  0,  4,  0,  2,  0,
        5,  3,  2,  6,  4, 25, 10,  4,  4,  4, 13,  4,  1,  3,  5, 15,  4])}, {'ts_index': 60, 'loc': 59, 'gap': 0.04124037934737379, 'distances': array([0.08695114, 0.0328878 , 0.03725254, 0.08565893, 0.        ,
       0.04173875]), 'delta_distances': array([0., 0., 0., 0., 0., 0.]), 'locations': array([34, 62, 63, 42, 59, 57])}], 'clusters': array([1, 1, 1, 1, 1, 1, 1, 1, 1, 1, 1, 2, 0, 1, 1, 1, 1, 1, 2, 1, 3, 1,
       1, 1, 2, 2, 1, 1, 1, 1, 1, 1, 1, 1, 2, 1, 1, 1, 3, 1, 1, 2, 2, 1,
       1, 1, 1, 1, 1, 2, 1, 0, 1, 1, 2, 1, 1, 1, 2, 1, 3, 1, 1, 1, 1, 1,
       1, 1, 1, 1, 1, 1, 1, 1, 1, 1, 1, 1, 1, 1, 1, 1, 2, 1, 1, 1, 1, 1,
       1, 1, 1, 3, 1, 1, 1, 1, 1, 1, 2, 1, 1, 2, 1, 1, 1, 1, 1, 1, 1, 1,
       1, 1, 2, 1, 1, 1, 1, 1, 1, 1, 2, 1, 1, 1, 1, 2, 1, 2, 2, 1, 1, 1,
       1, 1, 1, 2, 2, 1, 1, 1, 1, 1, 1, 1, 2, 1, 1, 1, 1, 1, 1, 1, 1, 2,
       1, 1, 2, 1, 1, 1, 1, 1, 1, 1, 1, 2, 1, 1, 1, 1, 1, 1, 1, 1, 1, 1,
       1, 1, 1, 1, 1, 2, 1, 1, 1, 1, 2, 1, 1, 1, 1, 1, 1, 2, 1, 1, 2, 1,
       1, 1]), 'time': 1700.599193572998}}}