{'FOTS': {5: {'RI': 0.4563316582914573, 'num_clusters': 15, 'uShapelets': [{'ts_index': 157, 'loc': 72, 'gap': 0.09819070210958006, 'distances': array([0.34247139, 0.19369954, 0.21194985, 0.29748136, 0.22541662,
       0.30458329, 0.40344246, 0.38207237, 0.17251286, 0.36355512,
       0.332207  , 0.30847123, 0.35389934, 0.28522412, 0.30873122,
       0.14324926, 0.42297219, 0.23351897, 0.1263589 , 0.13189694,
       0.2952795 , 0.38059551, 0.27936005, 0.30151137, 0.17600551,
       0.35983753, 0.25012325, 0.18123482, 0.3812115 , 0.39878956,
       0.37748751, 0.20167011, 0.21967309, 0.21793915, 0.35802971,
       0.38198966, 0.21338085, 0.39433507, 0.37356375, 0.40198447,
       0.39831283, 0.18027573, 0.34619126, 0.1511039 , 0.30645631,
       0.24313224, 0.20146542, 0.27863508, 0.33066097, 0.35767974,
       0.3082734 , 0.39186702, 0.43646123, 0.38479218, 0.33591473,
       0.37579966, 0.30451371, 0.28815384, 0.38633508, 0.15269792,
       0.26285231, 0.2784476 , 0.40505626, 0.10930755, 0.13984477,
       0.23495357, 0.12947572, 0.40605962, 0.38350063, 0.40820019,
       0.36673274, 0.32623092, 0.13491778, 0.3249379 , 0.38964835,
       0.16339833, 0.38490157, 0.23865843, 0.20413997, 0.39001229,
       0.31430327, 0.39569548, 0.43529167, 0.2290094 , 0.31364035,
       0.34989182, 0.36286926, 0.35590002, 0.36922712, 0.34043551,
       0.27676281, 0.36248746, 0.40689487, 0.14039452, 0.23873664,
       0.3682228 , 0.38579296, 0.39165744, 0.25578043, 0.35900183,
       0.29590241, 0.35978607, 0.38207163, 0.13590483, 0.12876958,
       0.31515877, 0.27619463, 0.40733697, 0.38594459, 0.31729314,
       0.39314866, 0.12202019, 0.21990771, 0.0641456 , 0.32577541,
       0.22489912, 0.27444356, 0.3517391 , 0.26065536, 0.29733827,
       0.10353875, 0.406347  , 0.20380207, 0.13656222, 0.14307374,
       0.35407078, 0.20898809, 0.33385783, 0.35397094, 0.36425969,
       0.30489378, 0.29014528, 0.13826066, 0.32321792, 0.11191597,
       0.08807336, 0.37300828, 0.24397449, 0.18885465, 0.398353  ,
       0.24891785, 0.32802673, 0.38149934, 0.39977589, 0.32749969,
       0.18618095, 0.40166459, 0.0644939 , 0.24769223, 0.19928149,
       0.14527082, 0.36251176, 0.15269136, 0.40287917, 0.13320924,
       0.31281748, 0.33589226, 0.        , 0.32623499, 0.34873248,
       0.38230059, 0.44691187, 0.38360315, 0.22747404, 0.17243359,
       0.41964778, 0.18695586, 0.31852712, 0.12859561, 0.07813594,
       0.32432343, 0.36772315, 0.31768111, 0.36362987, 0.16487578,
       0.33653819, 0.37416051, 0.32634894, 0.43716407, 0.37103794,
       0.25485279, 0.39465896, 0.32317742, 0.25248345, 0.29822731,
       0.40364479, 0.3247221 , 0.28762883, 0.33730279, 0.40463026,
       0.33452755, 0.41007207, 0.11073334, 0.22822705, 0.12578459,
       0.33871855, 0.35930334, 0.36849158, 0.11274867, 0.36705776]), 'delta_distances': array([0., 0., 0., 0., 0., 0., 0., 0., 0., 0., 0., 0., 0., 0., 0., 0., 0.,
       0., 0., 0., 0., 0., 0., 0., 0., 0., 0., 0., 0., 0., 0., 0., 0., 0.,
       0., 0., 0., 0., 0., 0., 0., 0., 0., 0., 0., 0., 0., 0., 0., 0., 0.,
       0., 0., 0., 0., 0., 0., 0., 0., 0., 0., 0., 0., 0., 0., 0., 0., 0.,
       0., 0., 0., 0., 0., 0., 0., 0., 0., 0., 0., 0., 0., 0., 0., 0., 0.,
       0., 0., 0., 0., 0., 0., 0., 0., 0., 0., 0., 0., 0., 0., 0., 0., 0.,
       0., 0., 0., 0., 0., 0., 0., 0., 0., 0., 0., 0., 0., 0., 0., 0., 0.,
       0., 0., 0., 0., 0., 0., 0., 0., 0., 0., 0., 0., 0., 0., 0., 0., 0.,
       0., 0., 0., 0., 0., 0., 0., 0., 0., 0., 0., 0., 0., 0., 0., 0., 0.,
       0., 0., 0., 0., 0., 0., 0., 0., 0., 0., 0., 0., 0., 0., 0., 0., 0.,
       0., 0., 0., 0., 0., 0., 0., 0., 0., 0., 0., 0., 0., 0., 0., 0., 0.,
       0., 0., 0., 0., 0., 0., 0., 0., 0., 0., 0., 0., 0.]), 'locations': array([ 3, 19, 75, 76, 73, 55, 34,  3, 17, 11, 56, 65, 30, 90, 36, 56,  4,
       84, 36, 19, 45, 62,  5, 28, 47, 76, 74, 30, 24, 14, 15, 44, 44, 70,
       51, 67, 34, 57, 85, 22, 61,  4, 37, 58, 46,  6, 10, 78,  8,  6, 51,
       82, 13, 85, 10, 45, 36, 38, 80, 82, 27, 36, 90, 32, 88, 38, 31, 83,
       44, 13, 64, 45, 84, 88, 43, 76,  2, 35,  7, 35,  2, 57, 69, 33, 27,
        4, 59, 40, 51, 86, 44, 40, 88, 49,  5, 82,  2, 69, 44, 46, 38, 73,
       61, 74, 72, 20, 27, 68,  6,  9,  4, 41,  9, 87, 51, 49, 28,  8, 19,
       38, 73, 47,  6,  2, 64, 32, 42, 36, 79, 10,  1, 47, 75, 51, 75, 21,
       33,  7, 43, 13, 63, 26, 71, 23,  6, 37,  3, 39, 20, 39, 74, 84, 31,
       50, 60, 86, 81, 72, 33, 17, 79, 29, 87, 14, 46, 68, 31, 48, 59, 73,
       77, 52, 24, 56, 69, 81, 79, 47, 31, 22, 28, 24, 73,  4, 47,  4, 60,
       69, 65,  7, 10, 74, 57, 75, 76, 27, 52, 11, 64, 40])}, {'ts_index': 182, 'loc': 4, 'gap': 0.10135681583758521, 'distances': array([0.32953956, 0.38043412, 0.19433225, 0.33116282, 0.11384221,
       0.35885151, 0.36276703, 0.15549014, 0.1573123 , 0.3316994 ,
       0.30148187, 0.22230362, 0.30081709, 0.23590233, 0.24513611,
       0.28722423, 0.23647094, 0.31233823, 0.30519312, 0.40084514,
       0.4217223 , 0.23137024, 0.28997063, 0.3154534 , 0.28369274,
       0.33749524, 0.14357227, 0.31142961, 0.39698105, 0.35559984,
       0.33604924, 0.32529976, 0.3462914 , 0.11441314, 0.35673493,
       0.24781631, 0.35328551, 0.26986717, 0.23028979, 0.15933392,
       0.25058487, 0.35494548, 0.37650147, 0.18717382, 0.28326794,
       0.37199314, 0.39719489, 0.29611663, 0.30025566, 0.11116854,
       0.31331689, 0.25257895, 0.33449619, 0.26848172, 0.07269704,
       0.32922524, 0.38926622, 0.33365211, 0.455146  , 0.34744104,
       0.37576497, 0.34876562, 0.29355536, 0.36599977, 0.43587334,
       0.36901724, 0.38901079, 0.27603889, 0.26056676, 0.37556342,
       0.37523554, 0.04715221, 0.11560701, 0.09621099, 0.07349301,
       0.28487957, 0.21243995, 0.23173665, 0.36214001, 0.27503857,
       0.39421579, 0.09283442, 0.3915318 , 0.40689262, 0.2235075 ,
       0.30022865, 0.31854727, 0.17757778, 0.10848081, 0.3883661 ,
       0.38484696, 0.35780538, 0.21240741, 0.36057322, 0.36865764,
       0.23187752, 0.36608268, 0.19373633, 0.11005469, 0.16787091,
       0.35366447, 0.23711096, 0.25331647, 0.23820859, 0.34380615,
       0.34383746, 0.23234344, 0.34558037, 0.13502195, 0.07533247,
       0.09780996, 0.36130208, 0.36999789, 0.39833189, 0.27707751,
       0.27055807, 0.39168651, 0.13411516, 0.40320448, 0.3584594 ,
       0.33393216, 0.23303886, 0.28747513, 0.30613869, 0.2446819 ,
       0.35647936, 0.26902357, 0.41177182, 0.07384729, 0.29808176,
       0.24682153, 0.3308615 , 0.39401152, 0.24904621, 0.33469617,
       0.09455543, 0.33724807, 0.2240068 , 0.43260668, 0.29125324,
       0.35887763, 0.23453922, 0.2188343 , 0.36030185, 0.15491298,
       0.27848077, 0.33761338, 0.21168287, 0.11155716, 0.24487035,
       0.        , 0.25142455, 0.04930641, 0.37438847, 0.26165083,
       0.22158962, 0.15799506, 0.42044261, 0.13785641, 0.35728805,
       0.29567754, 0.30027783, 0.32937284, 0.38031396, 0.23965578]), 'delta_distances': array([0., 0., 0., 0., 0., 0., 0., 0., 0., 0., 0., 0., 0., 0., 0., 0., 0.,
       0., 0., 0., 0., 0., 0., 0., 0., 0., 0., 0., 0., 0., 0., 0., 0., 0.,
       0., 0., 0., 0., 0., 0., 0., 0., 0., 0., 0., 0., 0., 0., 0., 0., 0.,
       0., 0., 0., 0., 0., 0., 0., 0., 0., 0., 0., 0., 0., 0., 0., 0., 0.,
       0., 0., 0., 0., 0., 0., 0., 0., 0., 0., 0., 0., 0., 0., 0., 0., 0.,
       0., 0., 0., 0., 0., 0., 0., 0., 0., 0., 0., 0., 0., 0., 0., 0., 0.,
       0., 0., 0., 0., 0., 0., 0., 0., 0., 0., 0., 0., 0., 0., 0., 0., 0.,
       0., 0., 0., 0., 0., 0., 0., 0., 0., 0., 0., 0., 0., 0., 0., 0., 0.,
       0., 0., 0., 0., 0., 0., 0., 0., 0., 0., 0., 0., 0., 0., 0., 0., 0.,
       0., 0., 0., 0., 0., 0., 0., 0., 0., 0., 0., 0.]), 'locations': array([ 8, 55, 89,  1, 65, 89, 34, 87, 64, 55, 74, 54, 60, 57,  3, 79, 25,
        5, 50, 28, 36, 60, 25, 24, 41, 86, 48, 90, 30, 45, 38, 59, 38, 47,
       35, 77, 15, 82, 10, 57, 16,  8, 81, 24, 36, 32, 51, 74, 48, 30, 67,
       80, 52, 82, 10, 66, 52,  2, 48, 84, 66, 90, 88, 54, 86, 11, 41, 35,
       33,  9, 15, 77,  6, 41, 33, 90, 61, 12, 44,  3,  7,  8, 51, 73, 15,
       54, 46,  7, 60, 14, 75, 19,  5, 34, 47,  4, 78, 55, 17, 68, 87,  4,
       67, 32, 17, 42, 31, 36, 29, 31, 58, 47, 70, 47, 28,  6, 82, 77,  4,
       11, 49, 79, 78, 48, 61, 10, 37, 17,  3, 84,  4, 62, 34, 61, 13, 46,
       48, 68, 50, 36, 56, 20, 56,  7, 32, 56, 11, 21,  1, 24,  4, 79, 50,
        4, 50,  4, 21, 73, 25, 74, 80, 48, 29, 11, 25])}, {'ts_index': 57, 'loc': 27, 'gap': 0.10631596269681565, 'distances': array([0.40046034, 0.13076989, 0.36519826, 0.38141042, 0.40419837,
       0.41025727, 0.21076833, 0.39692665, 0.36073773, 0.38846881,
       0.39492837, 0.15907882, 0.20359718, 0.38022524, 0.35702095,
       0.36770381, 0.38433402, 0.41614948, 0.38898309, 0.4055365 ,
       0.13873223, 0.36355582, 0.39752739, 0.36149571, 0.36934747,
       0.38846888, 0.37906119, 0.40821896, 0.34437718, 0.40619735,
       0.36837462, 0.30928898, 0.38919705, 0.16008169, 0.39745842,
       0.38624602, 0.32034029, 0.20866785, 0.36240387, 0.4143947 ,
       0.4000728 , 0.35790284, 0.33553338, 0.3909429 , 0.        ,
       0.39576269, 0.32908711, 0.38502239, 0.41379149, 0.40456753,
       0.3968977 , 0.3414164 , 0.30324126, 0.37977341, 0.40644224,
       0.42424603, 0.4264505 , 0.40943385, 0.39585962, 0.23582831,
       0.33807403, 0.40702531, 0.28107886, 0.16940574, 0.2212137 ,
       0.37588577, 0.36166117, 0.39722324, 0.1388415 , 0.35518487,
       0.34653511, 0.32757692, 0.17171127, 0.38702418, 0.35931383,
       0.37231613, 0.41384877, 0.39381804, 0.35595574, 0.35132757,
       0.31402341, 0.40251459, 0.35122598, 0.34531433, 0.24756968,
       0.40484791, 0.34071942, 0.41582586, 0.41321723, 0.39772984,
       0.40858779, 0.30370299, 0.40974612, 0.39355355, 0.0821136 ,
       0.20843605, 0.39105304, 0.41225371, 0.41884297, 0.21476296,
       0.37762449, 0.15462059, 0.32233661, 0.39412943, 0.38948103,
       0.37479009, 0.40412109, 0.37692531, 0.40304752, 0.31629112,
       0.37609781, 0.35819658, 0.2872803 , 0.39760512, 0.35824443,
       0.42191187, 0.42231213, 0.33437859, 0.34634494, 0.24801847,
       0.43208538, 0.31341914, 0.39531143, 0.36558267, 0.32363458,
       0.32624829, 0.23546643, 0.10440226, 0.13615789, 0.41800864,
       0.40329971, 0.24761882, 0.31123151, 0.20632968, 0.40940724,
       0.33480754]), 'delta_distances': array([0., 0., 0., 0., 0., 0., 0., 0., 0., 0., 0., 0., 0., 0., 0., 0., 0.,
       0., 0., 0., 0., 0., 0., 0., 0., 0., 0., 0., 0., 0., 0., 0., 0., 0.,
       0., 0., 0., 0., 0., 0., 0., 0., 0., 0., 0., 0., 0., 0., 0., 0., 0.,
       0., 0., 0., 0., 0., 0., 0., 0., 0., 0., 0., 0., 0., 0., 0., 0., 0.,
       0., 0., 0., 0., 0., 0., 0., 0., 0., 0., 0., 0., 0., 0., 0., 0., 0.,
       0., 0., 0., 0., 0., 0., 0., 0., 0., 0., 0., 0., 0., 0., 0., 0., 0.,
       0., 0., 0., 0., 0., 0., 0., 0., 0., 0., 0., 0., 0., 0., 0., 0., 0.,
       0., 0., 0., 0., 0., 0., 0., 0., 0., 0., 0., 0., 0., 0., 0., 0., 0.]), 'locations': array([84, 55, 49, 43,  8, 78, 55, 74, 54, 60, 57,  3, 49, 25, 54, 50, 14,
       23, 23, 76, 36, 80, 85, 90, 81, 50, 64, 59,  9, 35, 15, 45,  3,  5,
       16,  8, 15, 40, 47, 79, 41, 74, 81, 46, 27, 82, 82, 85, 55, 56, 17,
       84, 46, 90, 88, 90, 86, 11, 79, 13, 33,  9, 40, 90, 42, 48,  9,  3,
        7, 80, 79, 15, 88, 85, 14,  4, 41,  5, 90, 79,  4, 68, 55, 46, 48,
       45,  1, 26, 42,  2, 82, 85, 56,  3, 90,  6, 82, 40, 29, 49, 79, 69,
       61, 61, 34, 64, 81, 66, 49, 52, 23, 59, 82,  1, 41, 33, 73, 84, 20,
        0, 75,  9, 11, 45, 59, 79, 48, 50, 44, 64,  8,  2, 48, 29, 52, 40])}, {'ts_index': 107, 'loc': 66, 'gap': 0.10030622198772596, 'distances': array([0.40846648, 0.28916999, 0.38768463, 0.37852742, 0.42806053,
       0.37645759, 0.28932907, 0.3240478 , 0.40140318, 0.29501108,
       0.4031543 , 0.38069435, 0.41942606, 0.2014355 , 0.35739123,
       0.37200836, 0.1612099 , 0.1724116 , 0.35608739, 0.34179866,
       0.36135366, 0.12462186, 0.45045822, 0.42043616, 0.0972211 ,
       0.35694387, 0.3332467 , 0.36033254, 0.42487989, 0.3421637 ,
       0.39445546, 0.33156641, 0.31161694, 0.11569911, 0.2628728 ,
       0.41922463, 0.0967654 , 0.39236069, 0.35383916, 0.33975114,
       0.17243574, 0.13135847, 0.28388571, 0.28330156, 0.4079569 ,
       0.34036075, 0.30125151, 0.29484853, 0.36474794, 0.24062332,
       0.3747902 , 0.16882289, 0.15000546, 0.39941624, 0.35891447,
       0.28562681, 0.38939226, 0.40394417, 0.36679336, 0.39935259,
       0.25504028, 0.38025662, 0.35977979, 0.44247807, 0.        ,
       0.30383171, 0.39492003, 0.3205948 , 0.27218722, 0.35997638,
       0.08652196, 0.33927277, 0.33503803, 0.38684289, 0.1970286 ,
       0.34255625, 0.38428931, 0.25053333, 0.16948682, 0.42027846,
       0.43482952, 0.36893415, 0.34904255, 0.38875466, 0.40402044,
       0.4216764 , 0.28273291, 0.38084422, 0.32091245, 0.39930399,
       0.2947551 , 0.38300449, 0.21561069, 0.31293599, 0.18229322,
       0.37433043, 0.28876016, 0.29964808, 0.43259985, 0.26066967,
       0.31627088, 0.21543503, 0.14404784, 0.37840041, 0.32172851,
       0.41141794, 0.29933789, 0.29027461, 0.45647553, 0.42791706,
       0.31483872, 0.42284344]), 'delta_distances': array([0., 0., 0., 0., 0., 0., 0., 0., 0., 0., 0., 0., 0., 0., 0., 0., 0.,
       0., 0., 0., 0., 0., 0., 0., 0., 0., 0., 0., 0., 0., 0., 0., 0., 0.,
       0., 0., 0., 0., 0., 0., 0., 0., 0., 0., 0., 0., 0., 0., 0., 0., 0.,
       0., 0., 0., 0., 0., 0., 0., 0., 0., 0., 0., 0., 0., 0., 0., 0., 0.,
       0., 0., 0., 0., 0., 0., 0., 0., 0., 0., 0., 0., 0., 0., 0., 0., 0.,
       0., 0., 0., 0., 0., 0., 0., 0., 0., 0., 0., 0., 0., 0., 0., 0., 0.,
       0., 0., 0., 0., 0., 0., 0., 0., 0., 0.]), 'locations': array([46, 42, 36, 71, 72, 73, 11,  8, 15, 26, 84, 14,  3, 43, 67,  7, 69,
       63, 50, 37, 29, 26,  9, 54,  6, 70, 10, 30, 48, 47, 34, 89, 62, 66,
       37, 80, 16,  0, 14,  9, 14, 70, 45, 27, 75, 50, 17,  5, 70, 18, 80,
       43, 48, 90, 40, 51, 31, 61, 13,  5, 65, 46, 76, 85, 66, 76, 60, 42,
       47, 32, 61,  8,  8, 62,  1, 32, 44, 86, 47,  7, 76, 50, 61, 38, 86,
       87, 60, 52, 22, 25, 38,  2, 52, 67, 39, 34,  6,  9, 53,  5, 59, 13,
       52, 61, 66, 87, 35, 65, 52,  4, 84,  7])}, {'ts_index': 121, 'loc': 81, 'gap': 0.1017569536658405, 'distances': array([0.15080962, 0.35431902, 0.37064763, 0.29775205, 0.24859899,
       0.33364167, 0.41147474, 0.39794113, 0.24627506, 0.12501931,
       0.33688484, 0.41649369, 0.32425038, 0.25729999, 0.37993797,
       0.09647934, 0.41724806, 0.38021854, 0.3284265 , 0.27941601,
       0.28803148, 0.19418105, 0.13580091, 0.22493117, 0.27614613,
       0.40640591, 0.30322185, 0.413597  , 0.41521698, 0.31487685,
       0.34779951, 0.40238393, 0.116895  , 0.27204322, 0.37242252,
       0.10003771, 0.21539692, 0.1004193 , 0.35077412, 0.24863906,
       0.07439319, 0.42841853, 0.26036055, 0.0718375 , 0.25368649,
       0.19619744, 0.37814518, 0.23269366, 0.28216941, 0.30425933,
       0.09548035, 0.35351644, 0.42223952, 0.20825264, 0.22826372,
       0.30518634, 0.11258026, 0.34223175, 0.        , 0.46223135,
       0.37833993, 0.42240283, 0.14367111, 0.2404172 , 0.06083203,
       0.39456937, 0.36085435, 0.29816361, 0.41607489, 0.3066764 ,
       0.36404824, 0.21588251, 0.38240553, 0.2001203 , 0.07354042,
       0.3207345 , 0.27112236, 0.2502534 , 0.20846067, 0.35506882,
       0.28570931, 0.37815209, 0.32897989, 0.3819301 , 0.24248248,
       0.25753195, 0.32458452, 0.35174643, 0.36339685, 0.26001142,
       0.28676056, 0.32682538]), 'delta_distances': array([0., 0., 0., 0., 0., 0., 0., 0., 0., 0., 0., 0., 0., 0., 0., 0., 0.,
       0., 0., 0., 0., 0., 0., 0., 0., 0., 0., 0., 0., 0., 0., 0., 0., 0.,
       0., 0., 0., 0., 0., 0., 0., 0., 0., 0., 0., 0., 0., 0., 0., 0., 0.,
       0., 0., 0., 0., 0., 0., 0., 0., 0., 0., 0., 0., 0., 0., 0., 0., 0.,
       0., 0., 0., 0., 0., 0., 0., 0., 0., 0., 0., 0., 0., 0., 0., 0., 0.,
       0., 0., 0., 0., 0., 0., 0.]), 'locations': array([33, 46, 19, 51, 19, 65, 54, 23, 44, 82, 61,  5, 57, 39, 79, 61,  2,
        6,  9, 90, 61, 15, 39, 16, 60, 86, 36, 82, 18, 10, 68, 47, 30, 19,
        4, 66, 54, 46, 57, 40, 21, 33, 47,  7, 58, 36,  2, 26, 84, 81, 75,
       40, 34, 61, 55, 21, 73, 77, 81, 40,  7, 65, 39, 32, 13, 71, 38, 79,
       48, 61, 10, 80, 28, 38, 17, 17, 61, 85, 63, 48,  4, 52, 24, 70, 21,
       48,  9,  7,  4, 12, 11, 40])}, {'ts_index': 54, 'loc': 62, 'gap': 0.09287778257131646, 'distances': array([0.24606662, 0.32503302, 0.34495658, 0.28608083, 0.18124948,
       0.30886885, 0.30319519, 0.36042518, 0.26403759, 0.2137424 ,
       0.10595181, 0.33203578, 0.37519631, 0.35435309, 0.29200227,
       0.28980783, 0.32161648, 0.24573985, 0.2973748 , 0.30376059,
       0.31018171, 0.28175894, 0.29540424, 0.14703261, 0.        ,
       0.3528623 , 0.09700962, 0.33353443, 0.30377625, 0.36553365,
       0.19114819, 0.32031207, 0.31192362, 0.29741385, 0.25024619,
       0.28312287, 0.14235837, 0.34632757, 0.31843103, 0.13329254,
       0.17022701, 0.28922385, 0.32309411, 0.3274468 , 0.37292251,
       0.3211816 , 0.06270695, 0.1988972 , 0.31304027, 0.3561201 ,
       0.37075534, 0.29357819, 0.33989104, 0.12246297, 0.29427858,
       0.32275249, 0.31976172, 0.30922403, 0.34330929, 0.33362321,
       0.33914684, 0.30176746, 0.30756331, 0.37398272, 0.2492395 ,
       0.3302505 , 0.34743513, 0.332864  , 0.13160111, 0.33597621,
       0.36096835, 0.25201093, 0.31383825, 0.28237381, 0.33535384]), 'delta_distances': array([0., 0., 0., 0., 0., 0., 0., 0., 0., 0., 0., 0., 0., 0., 0., 0., 0.,
       0., 0., 0., 0., 0., 0., 0., 0., 0., 0., 0., 0., 0., 0., 0., 0., 0.,
       0., 0., 0., 0., 0., 0., 0., 0., 0., 0., 0., 0., 0., 0., 0., 0., 0.,
       0., 0., 0., 0., 0., 0., 0., 0., 0., 0., 0., 0., 0., 0., 0., 0., 0.,
       0., 0., 0., 0., 0., 0., 0.]), 'locations': array([26, 69, 41, 51, 35, 36, 28, 56, 11, 60, 82, 87, 80, 42,  4, 66, 48,
       46, 81, 49, 10, 39, 47, 72, 62, 72, 45, 55, 39, 85, 28, 87, 26,  4,
       47,  5, 60,  1, 48, 53, 36, 72,  7, 51, 84,  4, 87, 13, 81, 77, 80,
        0, 55, 75, 57, 60, 13, 32,  4, 41, 78, 13, 80, 13,  0, 57, 67,  9,
       84, 42, 86, 37, 14, 66, 45])}, {'ts_index': 151, 'loc': 37, 'gap': 0.09693538602552515, 'distances': array([0.1851018 , 0.25991236, 0.39513068, 0.44593122, 0.35901181,
       0.34582385, 0.29820422, 0.3737411 , 0.13053599, 0.14897687,
       0.37412775, 0.37385921, 0.28525732, 0.39279671, 0.38640384,
       0.39737577, 0.40014198, 0.19226434, 0.40802381, 0.46361641,
       0.37595543, 0.41899271, 0.37689388, 0.33900796, 0.42617396,
       0.23938327, 0.42296083, 0.40155633, 0.45156063, 0.20460318,
       0.38493698, 0.42033756, 0.39971105, 0.26904562, 0.24706923,
       0.30690253, 0.43257585, 0.17493727, 0.40153524, 0.38741234,
       0.39544718, 0.41458328, 0.        , 0.41948   , 0.18075764,
       0.32935231, 0.36062479, 0.34921464, 0.41951958, 0.44218632,
       0.17526836, 0.3850294 , 0.29541854, 0.36123604, 0.4077754 ,
       0.19418564, 0.40542345, 0.43074814, 0.36955659, 0.4399186 ,
       0.24401248]), 'delta_distances': array([0., 0., 0., 0., 0., 0., 0., 0., 0., 0., 0., 0., 0., 0., 0., 0., 0.,
       0., 0., 0., 0., 0., 0., 0., 0., 0., 0., 0., 0., 0., 0., 0., 0., 0.,
       0., 0., 0., 0., 0., 0., 0., 0., 0., 0., 0., 0., 0., 0., 0., 0., 0.,
       0., 0., 0., 0., 0., 0., 0., 0., 0., 0.]), 'locations': array([89, 65, 89, 86, 54, 60, 57, 74, 60, 25, 70, 51, 59, 57, 77, 59, 78,
       49, 36, 45, 52, 62, 84,  2,  2, 69, 12, 49, 68, 46, 61,  7,  4, 78,
       67, 45, 84,  4, 11, 69, 48, 10, 37, 33,  2, 12, 35, 48, 68,  2, 36,
       56, 20, 11, 36, 10, 82, 74, 27, 41, 25])}, {'ts_index': 179, 'loc': 21, 'gap': 0.09945163846433061, 'distances': array([0.30336243, 0.36387769, 0.29200166, 0.26332853, 0.37372779,
       0.18099942, 0.24740563, 0.39076832, 0.29560165, 0.32956289,
       0.34445741, 0.16642703, 0.13252191, 0.28495735, 0.18548491,
       0.37145338, 0.36676031, 0.36780274, 0.33024259, 0.30816531,
       0.41508223, 0.17000923, 0.18858943, 0.37366437, 0.36170636,
       0.35219544, 0.12570134, 0.32037425, 0.37191099, 0.39311416,
       0.31537603, 0.32140973, 0.16661538, 0.34580559, 0.31112188,
       0.3834475 , 0.34827657, 0.17949574, 0.36049935, 0.1272439 ,
       0.40135952, 0.33507925, 0.32221035, 0.41480723, 0.        ,
       0.37090912, 0.31992782, 0.27240188, 0.28462201]), 'delta_distances': array([0., 0., 0., 0., 0., 0., 0., 0., 0., 0., 0., 0., 0., 0., 0., 0., 0.,
       0., 0., 0., 0., 0., 0., 0., 0., 0., 0., 0., 0., 0., 0., 0., 0., 0.,
       0., 0., 0., 0., 0., 0., 0., 0., 0., 0., 0., 0., 0., 0., 0.]), 'locations': array([ 1, 89, 34, 54, 60, 36, 61, 30, 45, 59, 38, 61, 16, 60, 36, 32, 43,
       67, 13, 90,  1, 12,  3, 65, 61, 61,  4, 69, 77, 17, 32, 11, 79, 48,
       10, 28, 17, 61, 48, 68, 79, 56, 20, 82, 21,  7, 74, 48, 11])}, {'ts_index': 33, 'loc': 15, 'gap': 0.09127938309852038, 'distances': array([0.23522103, 0.35527861, 0.10516769, 0.27277893, 0.27502928,
       0.29043028, 0.        , 0.13831754, 0.33319649, 0.30784502,
       0.32596327, 0.13825851, 0.34742336, 0.13854047, 0.19491433,
       0.3442565 , 0.35966779, 0.23075646, 0.31307423, 0.27907878,
       0.27409449, 0.22813892, 0.3190126 , 0.30223666, 0.36193824,
       0.32008471, 0.37929462, 0.23318941, 0.12286651, 0.32663981,
       0.2974447 , 0.38490609, 0.39327558, 0.27568786, 0.28224959,
       0.30115465, 0.35926905, 0.13397526]), 'delta_distances': array([0., 0., 0., 0., 0., 0., 0., 0., 0., 0., 0., 0., 0., 0., 0., 0., 0.,
       0., 0., 0., 0., 0., 0., 0., 0., 0., 0., 0., 0., 0., 0., 0., 0., 0.,
       0., 0., 0., 0.]), 'locations': array([78, 33, 59, 90, 35, 40, 15,  0, 85, 62, 68, 66, 45, 42, 87,  5, 73,
       49, 89, 74, 33, 17, 10, 54, 67, 90, 85,  3, 85, 77, 75,  1, 14, 86,
       86, 41, 11, 38])}, {'ts_index': 21, 'loc': 9, 'gap': 0.1127014897777101, 'distances': array([0.27022558, 0.41676873, 0.40170507, 0.30726226, 0.        ,
       0.40204054, 0.34910943, 0.32483878, 0.43366854, 0.37330641,
       0.31155526, 0.43131066, 0.17051322, 0.37481296, 0.36558359,
       0.26590888, 0.34430816, 0.14863939, 0.33633864, 0.15333273,
       0.24368373, 0.43272415, 0.28327317, 0.39539171, 0.15089524,
       0.39850718, 0.27101971, 0.14940065, 0.32518976, 0.1078403 ]), 'delta_distances': array([0., 0., 0., 0., 0., 0., 0., 0., 0., 0., 0., 0., 0., 0., 0., 0., 0.,
       0., 0., 0., 0., 0., 0., 0., 0., 0., 0., 0., 0., 0.]), 'locations': array([47,  8, 23, 43,  9, 10,  9,  8, 70, 40,  1, 48, 14, 79,  1, 45,  3,
        3, 62,  2,  2, 83, 38, 77, 66, 90, 53, 75,  8,  5])}, {'ts_index': 47, 'loc': 8, 'gap': 0.09637758713563138, 'distances': array([0.20288623, 0.34879388, 0.33898374, 0.31270382, 0.38250536,
       0.06449582, 0.        , 0.35589583, 0.36388126, 0.39266299,
       0.32284728, 0.26570387, 0.27867273, 0.39312984, 0.25767527,
       0.15925057, 0.1401232 , 0.3901079 , 0.33454057, 0.36422751,
       0.31470742, 0.34402574, 0.21071627]), 'delta_distances': array([0., 0., 0., 0., 0., 0., 0., 0., 0., 0., 0., 0., 0., 0., 0., 0., 0.,
       0., 0., 0., 0., 0., 0.]), 'locations': array([ 1, 34, 54, 39, 59, 38,  8, 52, 90,  1, 65, 79, 48, 45, 17, 62, 82,
        5,  1, 77, 35, 82, 74])}, {'ts_index': 153, 'loc': 83, 'gap': 0.11021418533020261, 'distances': array([0.14838119, 0.06789614, 0.28969231, 0.3017704 , 0.17345432,
       0.07346828, 0.25868774, 0.29788338, 0.2618987 , 0.36565326,
       0.31645108, 0.16034526, 0.        , 0.34254058, 0.28659285,
       0.3910781 , 0.39335583, 0.33591739]), 'delta_distances': array([0., 0., 0., 0., 0., 0., 0., 0., 0., 0., 0., 0., 0., 0., 0., 0., 0.,
       0.]), 'locations': array([32,  6, 21, 18, 54, 30, 76, 34, 66, 57, 21, 86, 83, 55,  4, 11, 53,
       23])}, {'ts_index': 36, 'loc': 61, 'gap': 0.12026536642813945, 'distances': array([0.25641775, 0.        , 0.34679047, 0.29684184, 0.33105706,
       0.33810685, 0.38799994, 0.30709068, 0.16645605, 0.090012  ,
       0.14260717, 0.30190206]), 'delta_distances': array([0., 0., 0., 0., 0., 0., 0., 0., 0., 0., 0., 0.]), 'locations': array([29, 61, 42, 34, 58, 57, 45, 49, 14, 52,  7, 29])}, {'ts_index': 191, 'loc': 39, 'gap': 0.14368244546156073, 'distances': array([0.31888251, 0.41154256, 0.37838483, 0.22485812, 0.43713551,
       0.12475048, 0.44725566, 0.        ]), 'delta_distances': array([0., 0., 0., 0., 0., 0., 0., 0.]), 'locations': array([23, 83, 34, 11, 57, 42,  1, 39])}, {'ts_index': 112, 'loc': 47, 'gap': 0.15118686780869628, 'distances': array([0.37690835, 0.21668638, 0.37129453, 0.        , 0.41829977]), 'delta_distances': array([0., 0., 0., 0., 0.]), 'locations': array([ 8, 70, 13, 47, 34])}], 'clusters': array([ 5,  3,  7, 11,  2, 12,  9,  2,  1,  2,  3,  6, 12,  0,  8,  1,  3,
        3,  1,  1,  5, 10,  6,  6,  1,  4,  7,  7,  3,  4,  4,  2,  5,  9,
        9,  4, 13, 11,  2,  4,  8,  5,  5,  1,  3,  2,  8, 11,  7,  3,  8,
        9,  4,  6,  6,  2,  4,  3, 12,  1,  6,  2,  5,  1,  1,  4,  1,  4,
        9,  9,  5, 12,  1,  5,  6,  1, 15,  4,  5,  3,  4,  4,  7,  2,  2,
        2,  2,  3,  3,  8,  5,  8,  3,  1,  2,  5,  0,  6,  3,  7,  2,  2,
       10,  1,  1,  5,  6,  4,  6, 14,  8,  1, 15,  1,  5,  2,  2,  4,  3,
       14,  1,  5, 12,  1,  1,  4,  6,  6,  2,  2,  2,  5,  1,  4,  1,  1,
       10,  3,  3,  5,  2,  7, 11,  3,  8,  3, 10,  1,  6, 11,  1,  7,  1,
       12,  1,  2,  7,  1,  5,  9,  4,  8,  4,  2,  1,  0,  8, 13,  1,  1,
        7, 10, 13,  3,  1,  4,  2,  4, 13,  8,  2,  6,  2,  7,  2,  3,  3,
        3,  2, 10,  2, 14,  1,  3,  1, 10,  3,  9,  1,  7]), 'time': 67822.71068120003}}, 'UED': {5: {'RI': 0.5285427135678392, 'num_clusters': 3, 'uShapelets': [{'ts_index': 199, 'loc': 36, 'gap': 5.693963325150399, 'distances': array([30.0103236, 38.7769348, 10.9215892, 22.5939308, 17.130446 ,
       12.878374 , 39.9988756, 31.5364814, 31.9133432, 33.1801104,
       22.141463 , 19.0763592, 29.864605 , 29.4227512, 33.0843444,
       28.8445128, 35.1737046, 21.9918008, 32.439057 , 30.5688676,
       16.6199618, 34.3310196, 37.2709048, 35.8052286, 22.248616 ,
       27.778627 , 36.8419978, 26.1980686, 34.7365164, 30.1623672,
       28.9566954, 28.5775224, 17.7193316, 27.9397732, 35.52952  ,
       36.2034388, 33.2088892, 21.3681682, 40.9763732, 23.3918756,
       38.2987778, 34.8979854, 29.393074 , 30.1344584, 15.4348086,
       16.1087636, 20.4466144, 30.9268918, 33.8995218, 32.2395592,
       23.3847252, 19.9486564, 32.3648852, 30.2155636, 33.7893528,
       33.6549132, 19.8653168, 28.3914942, 39.371706 , 22.7042156,
       29.096232 , 32.6691036, 37.4947632, 15.5505006, 34.6601802,
       31.7192546, 18.5613182, 30.440711 , 27.2287442, 37.2684918,
       13.4082006, 21.7668902, 34.813577 , 18.3714566, 27.3779694,
       23.1561704, 25.117665 , 30.1529352, 36.1922518, 34.5511638,
       41.7368244, 34.1343956, 26.8431336, 31.8612954, 35.1103704,
       11.7244038,  9.7209356, 33.9020448, 39.4852716, 39.5208334,
       25.249704 , 23.9659708, 28.712706 , 28.8583688, 40.1047106,
       26.2501064, 37.1426324,  7.0228142, 20.102282 , 31.8798358,
       34.9199128, 36.6847   , 31.8900632, 25.932597 , 21.4666796,
       13.9174184, 32.9571326, 35.415737 , 28.1020646, 19.3003844,
       23.8168686, 35.5626412, 32.6227256, 40.1314172, 17.2919852,
       35.8407352, 35.8762682, 30.275173 , 31.7017044, 13.4894324,
       30.0923534, 21.427411 , 29.9762936, 36.3266622, 33.661971 ,
       31.7788028, 19.993726 , 28.2851916, 13.6016674, 30.6028932,
       36.3366768, 34.907617 , 26.0285108, 36.4034264, 35.3640214,
       35.5370718, 18.198533 , 33.2574332, 40.1934968, 42.131726 ,
       36.3466296, 36.9703482, 23.6538424, 32.5849814, 20.685698 ,
       38.446265 , 22.3244068, 32.5523534, 24.1385804, 38.5605428,
       39.2185924, 32.9173034, 18.0745046, 16.1777364, 41.4694044,
       25.9549998, 31.7903292, 23.8783992, 36.0050324, 31.8770284,
       34.8540506, 32.9844132, 23.3597782, 25.0266634, 32.8684882,
       37.7849674, 17.720289 , 32.045662 , 21.7155684, 38.7236   ,
       29.8661816, 28.6128088, 27.670263 , 38.1436208, 23.5307514,
       37.0214898, 27.819159 , 24.6769812, 25.9998764, 38.8778994,
       32.2557802, 25.6837788, 34.6976388, 24.816536 , 32.8449834,
       27.7936908, 29.5031324, 29.2080968, 37.4034702, 39.704872 ,
       26.2672588, 33.7511914, 19.98688  , 28.55822  , 26.3299892,
       30.9201744, 32.7472898, 21.122056 , 27.7662442,  0.       ]), 'delta_distances': array([35.3690032, 39.8616252, 30.889516 , 32.1664452, 36.260236 ,
       23.9443908, 38.6993272, 45.7778584, 35.8204312, 36.7860352,
       38.7856572, 29.9215956, 47.7741212, 43.5411868, 40.5341668,
       30.0376052, 32.8079936, 33.3366228, 37.0241036, 32.6975564,
       32.8925168, 35.6772848, 37.1786464, 43.3239336, 37.3590748,
       33.2231304, 35.5692496, 33.3703724, 33.5736316, 38.1659436,
       35.3691716, 35.579006 , 33.1904624, 32.9742864, 35.717032 ,
       31.0339876, 48.4520492, 40.4128036, 50.7351364, 36.0592924,
       35.0198352, 38.183746 , 45.882682 , 34.1075264, 32.0677208,
       32.0342708, 37.7793588, 36.0763936, 43.2173248, 48.06449  ,
       37.425682 , 40.7531648, 41.48815  , 33.713742 , 38.4311888,
       39.4102248, 32.470752 , 38.1654236, 41.8260504, 29.1437684,
       34.3345564, 38.800972 , 51.6327952, 28.5593012, 42.5915088,
       37.2804452, 37.8961056, 29.9138856, 40.7258736, 35.2142036,
       39.218418 , 31.8448528, 58.1940676, 34.5831204, 50.7387936,
       40.0889288, 41.6770128, 32.82934  , 40.7869748, 38.1357492,
       34.5456556, 37.4847672, 33.0430252, 39.3581396, 30.2404512,
       27.1566156, 28.1589388, 39.0243216, 43.2501004, 36.0034188,
       34.8262128, 27.3554088, 50.2829872, 35.894164 , 35.9587168,
       36.4071004, 54.436554 , 22.4963752, 35.0573052, 41.7856656,
       45.1204832, 30.3719652, 38.8932884, 37.9825204, 39.8728376,
       28.479604 , 35.1772092, 33.2192532, 42.8102256, 32.5734644,
       37.1429608, 37.635    , 35.3733132, 48.0858376, 29.9016704,
       41.0019048, 39.824236 , 41.7247964, 36.90236  , 28.4423364,
       33.0882804, 33.4447004, 46.4101908, 34.24826  , 42.3535944,
       54.911034 , 36.2124408, 35.8784688, 29.9518576, 42.3900924,
       36.3150128, 43.7191224, 41.197376 , 32.5343108, 43.414276 ,
       35.8563184, 33.9108236, 42.8370664, 31.1215104, 34.8023636,
       38.6498224, 36.3010836, 44.621632 , 38.1445264, 30.5497736,
       36.7723532, 38.4233792, 31.2993768, 32.2770188, 31.0791868,
       51.9930932, 49.1908116, 31.85857  , 34.0049588, 36.4017988,
       38.17082  , 41.0369188, 35.9888412, 39.1993956, 34.5103692,
       34.2636596, 47.2798684, 41.894984 , 35.7759948, 35.5621832,
       44.455202 , 31.6110508, 40.9360452, 43.4777364, 42.9317944,
       47.692146 , 43.2786976, 32.8378616, 40.1206096, 44.2316088,
       44.264716 , 37.407908 , 48.193206 , 34.059608 , 54.326062 ,
       35.526318 , 31.793428 , 41.0524044, 37.3215152, 40.9252256,
       46.2878524, 33.490902 , 30.5612572, 36.7993844, 39.3064464,
       34.1045824, 45.4706752, 30.324496 , 30.5241496, 34.0106484,
       35.8813524, 42.568874 , 41.0380092, 36.2094448,  0.       ]), 'locations': array([90, 41,  0, 39, 37, 36, 85, 44, 85, 86, 34, 86, 34,  2, 89, 80, 35,
       88, 32, 52, 88, 50, 46,  5, 86, 86, 88, 88, 29, 47, 32, 40,  1, 33,
       79,  1,  0,  5, 29,  2,  6, 89, 33, 49, 35, 37, 44, 27, 44,  2, 85,
       86,  2, 87, 85,  0, 42, 44, 87,  1, 16, 39,  5, 86, 26, 88, 88, 72,
        0, 85, 37, 41, 90, 32,  1,  5, 89, 54, 44, 41, 76, 44, 86, 37, 73,
       41,  0, 11, 88, 36,  3, 88,  1,  0,  0,  6, 27,  1, 40, 25, 39, 87,
        7, 86, 36,  0, 88, 62, 42,  3,  0, 42, 89,  0,  1,  0, 40, 37, 86,
       28, 86, 88, 38, 72, 88, 38, 34, 87, 30,  3, 89, 42, 36, 86,  5, 75,
       43,  3, 74, 78,  1, 79, 88,  2, 39,  7, 32, 86,  5, 77,  3, 43, 35,
       87, 67, 36, 34,  3, 34,  8, 43, 42, 32, 38, 37, 44,  1, 36, 38, 37,
        0, 42, 86, 41,  5, 38, 87, 36, 35, 32, 42, 42, 36, 42, 86,  0, 46,
       73, 48,  3, 88,  0, 40, 71, 45,  8, 35,  0, 88, 36])}, {'ts_index': 148, 'loc': 0, 'gap': 2.9589022386987374, 'distances': array([19.4896862, 29.8932898, 24.803727 , 29.3133764, 11.6075118,
       23.4603316, 22.7093712, 10.444315 , 30.4985542, 20.858987 ,
       24.4535998, 24.4912412, 16.8549802, 16.9928528, 27.2183066,
       22.6536752, 19.1976908, 23.2933398, 18.911894 , 17.9323446,
       23.6617436, 26.0857378, 24.2393978, 15.2398592, 19.7491382,
       22.8385466, 22.9330828, 15.766378 , 25.8154808, 21.960369 ,
       18.8562456, 31.1477776, 13.094365 , 26.6069526, 26.0972852,
       14.6234608, 23.9028684, 27.215107 , 26.7698144, 22.8413018,
       20.422774 , 20.3326678, 24.9042888, 20.4671316, 17.043338 ,
       20.2093652, 26.9009552, 20.1204236, 26.7475272, 15.5901348,
       26.3213994, 17.2910314, 12.085283 , 24.8459124, 11.9542766,
       29.0702616, 12.9125752,  8.109115 , 23.7574216, 13.4052634,
       21.8378612, 27.0274178, 24.2596128, 11.9687674, 20.7560892,
       24.1548366, 21.0114222, 24.4594354, 15.9505272, 23.7011054,
       28.314767 , 30.5175788, 18.6418024, 19.9436206, 16.9198458,
       14.760323 , 29.3019456, 23.5842686, 21.739015 , 23.8890058,
       26.3550188, 27.9469466, 25.0130712, 26.1488184, 20.629658 ,
       20.3396942, 19.2185724, 22.7986418, 22.007063 , 24.8647402,
       17.5966772, 25.252624 , 24.75521  , 19.1873776, 22.6764722,
       12.8521862, 21.7705286, 25.0519504, 18.1042044, 24.9195188,
       27.8408338, 20.2712356, 22.756751 , 29.2155782, 14.5148882,
       19.8210382, 16.819065 , 26.4717286, 25.268763 , 15.3500976,
       28.4223832, 25.2449812, 21.9771542, 21.3194612, 21.3666026,
       21.0579094, 22.5282578, 13.115093 , 19.8947988,  0.       ,
       29.361432 , 24.381523 , 24.6090122, 24.7575124, 17.5951098,
       25.7977618, 13.4854118, 12.8985632, 17.8145294, 23.8485598,
       19.57578  , 20.5802234, 20.1292444, 21.0195932, 29.6165874,
       19.4681358, 19.5700232, 22.5233942, 18.5717132, 18.6637656,
       24.296743 , 29.2772156, 28.034841 , 24.8808848, 19.5501926,
       27.8730216, 23.789945 , 28.8149014, 28.534583 , 16.8856416,
       21.053319 , 25.676295 , 18.241992 , 16.939838 , 23.6549788,
       21.5235292, 16.8386276, 26.6006876, 14.5562222, 26.0520556,
       19.7670146, 23.1325638, 23.8041872, 25.0363956, 20.0345494]), 'delta_distances': array([19.3141892, 17.531678 , 24.2431612, 23.0242096, 13.0924948,
       14.044826 , 24.8663464, 13.25214  , 17.76893  , 16.1793888,
       24.7074092, 21.4155488, 16.8096544, 12.2995396, 17.0764632,
       18.2911196, 28.219142 , 13.1688912, 17.3781356,  7.8862256,
       22.8429756, 29.6916296, 14.3869868, 17.8747116, 19.3635776,
       19.3926152, 22.3568396, 22.0790476, 16.9287124, 38.4359792,
       27.3975912, 22.3972008, 18.8831676, 21.7210688, 17.7741292,
       14.734368 , 20.5994328, 17.119812 , 19.0876232, 18.4832752,
       17.00925  , 22.5319396, 22.904468 , 19.7556996, 20.9396604,
       39.003834 , 11.5603752,  9.1313332, 21.9179936, 20.5219096,
       23.4197268, 22.4072256, 14.8986532, 17.4612932, 17.021604 ,
       16.012494 , 23.8335176, 14.8641872, 25.6388704, 13.9617588,
        9.1989012, 24.6354348, 15.9067968, 17.1197528, 14.1547968,
       23.8655468, 25.5864916, 23.5897516, 26.0399668, 21.6510448,
       18.8681364, 31.1411824, 26.9049216, 24.6865284, 23.0164636,
       25.8515436, 21.06389  , 16.5220024, 25.70116  , 17.5434972,
       28.2780136, 12.4874112, 25.0909088, 20.4106468, 26.2444144,
       20.1993732, 31.4073992, 14.8312816, 17.4385056, 23.4651876,
       21.8608064, 23.1186764, 14.521984 , 16.2019772, 18.2120872,
       10.9148344, 12.708006 , 24.0380896, 24.343128 , 13.9757492,
       17.9503248, 13.6619808, 21.9770204, 25.1208024, 10.4875552,
       16.8247332, 15.8740224, 20.7658124, 18.0425152, 21.1079408,
       17.7580408, 24.4544004, 19.3732504, 23.4744588, 26.0925352,
       21.4166292, 16.5383588, 21.574372 , 17.1882348,  0.       ,
       23.2218352, 20.1778788, 18.9295348, 24.7542392, 11.609362 ,
       22.7326092, 17.1088948, 17.3803608, 13.4030656, 11.459294 ,
       28.6467668, 28.3660888, 25.4194044, 20.1952676, 14.9125672,
       10.7252524, 25.0703204, 19.9031056, 18.1046632, 14.6111248,
       15.1624264, 18.629294 , 19.0084696, 28.054148 , 31.6267792,
       32.9127768, 21.4832152, 18.0869288, 30.2373248, 17.8487104,
       12.0176108, 23.4838652, 29.2304184, 18.1963904, 21.244996 ,
       22.012372 , 12.39216  , 16.060684 , 15.9035396, 37.6130172,
       10.5801856, 19.6537596, 17.5428604, 27.3935324, 16.0663816]), 'locations': array([ 0, 44, 40, 86,  0,  4,  4, 37, 47,  3, 90, 81,  0, 54, 34, 88,  2,
        2,  0, 89, 89,  2,  0,  0,  0, 35,  0,  1, 89,  2,  1, 32,  3,  1,
       90, 34, 53, 88, 46, 88, 88,  3, 88, 89,  1,  3, 67,  4, 19,  0,  1,
        3,  0, 73,  1, 41,  1,  0,  2,  8,  0,  1, 45,  0,  1, 45, 89,  0,
        0,  4,  2,  1,  4, 37,  2,  1, 88,  7,  0,  1,  0, 89,  4, 87, 37,
        3,  1, 43,  1,  0, 90,  3, 48,  0,  1,  1, 87,  0,  0,  1, 89, 88,
        1, 43,  0,  1,  0,  0,  0,  6, 90,  0,  5,  1,  3,  3,  2, 33, 90,
        0,  0,  0,  0,  0, 43, 35,  4,  0,  0,  2,  0,  1, 39, 43, 45,  1,
       39,  0,  1, 43, 87, 75, 41,  1,  0,  0,  1, 75, 36, 43,  1, 43,  0,
        2,  1,  0,  0, 46,  5,  1, 86, 46, 88,  2, 89])}], 'clusters': array([0, 0, 1, 0, 1, 1, 0, 2, 0, 0, 2, 1, 0, 0, 0, 0, 2, 0, 0, 0, 1, 0,
       0, 0, 0, 0, 0, 0, 2, 0, 0, 0, 1, 2, 0, 0, 0, 1, 0, 2, 0, 0, 2, 0,
       1, 1, 1, 0, 0, 0, 0, 1, 0, 0, 0, 0, 1, 0, 0, 0, 0, 2, 0, 1, 0, 2,
       1, 0, 2, 0, 1, 2, 2, 1, 0, 2, 0, 0, 0, 2, 0, 0, 0, 0, 2, 1, 1, 0,
       0, 0, 0, 0, 2, 2, 0, 0, 0, 1, 1, 0, 0, 0, 0, 0, 0, 1, 0, 0, 0, 1,
       0, 0, 0, 0, 1, 0, 0, 0, 2, 1, 0, 1, 0, 0, 0, 0, 1, 0, 1, 0, 0, 2,
       0, 2, 0, 0, 1, 2, 0, 0, 0, 0, 0, 0, 1, 0, 2, 0, 2, 0, 0, 0, 1, 1,
       0, 0, 0, 2, 2, 0, 0, 0, 0, 0, 0, 0, 1, 0, 0, 0, 0, 0, 0, 0, 0, 0,
       0, 0, 0, 0, 0, 2, 0, 0, 0, 2, 0, 0, 2, 0, 2, 0, 1, 0, 0, 0, 0, 1,
       0, 1]), 'time': 8338.0590903759}, 24: {'RI': 0.49301507537688444, 'num_clusters': 5, 'uShapelets': [{'ts_index': 199, 'loc': 17, 'gap': 1.3991782290618602, 'distances': array([ 8.04290675,  9.87715825, 11.04138225,  7.12286204,  5.28609704,
        3.41408629, 10.83299613,  9.47780729,  8.29113875, 10.22989304,
        6.61046513,  7.24171513,  9.4168335 , 11.6579205 ,  9.78535683,
       10.2152055 ,  8.52246037,  7.63085513,  8.42261963,  8.37469596,
        6.49937479, 10.51324283, 10.29611096, 11.36232725,  6.15250833,
        8.59940017, 10.17741625,  9.23052092,  9.19958942,  8.966593  ,
        8.01139071,  8.57963133,  7.25204983,  8.00514967,  9.68510096,
       10.37292146,  9.97537083, 10.31746304, 11.16652738, 10.46360808,
       11.08995442,  9.68594179,  8.30391983,  9.19581967,  4.7341455 ,
        4.41910608,  8.22567217,  7.98846704,  8.85620983,  8.08522275,
        8.31511413,  6.42244696,  8.74442625,  9.89368704,  9.60475138,
        9.7455535 ,  5.77220642,  8.17971417,  9.94268329,  9.13894896,
       11.09667813,  9.50072983,  9.6744755 ,  5.26459354,  9.77985675,
        9.42240792,  7.19564746,  9.24014383,  9.44742112, 10.00296188,
        4.54868663,  8.66795408,  9.92497146,  4.92839717,  7.6118785 ,
        8.96407208,  7.62981613,  8.80665967,  9.56583287,  9.33292092,
       11.13593504,  9.43361238,  8.87996492,  8.22871858,  9.0567315 ,
        6.38737071,  9.76643488, 11.72347771,  9.91636671,  9.34955063,
       10.57603363,  8.17623692, 10.84503196, 10.500253  , 11.32755992,
       10.38631604,  9.55139954,  8.96781304,  8.565012  ,  8.67545983,
        8.70284508,  9.18700529, 10.36318033,  8.33225308,  6.08921975,
        8.09229846, 11.09377246,  9.71672804,  7.69939467,  8.50288958,
       10.96869133,  8.41615563,  9.56906117, 11.61083333, 10.01008771,
        9.96846092, 11.06049292,  7.40012304,  9.694097  ,  4.07237288,
        8.90786663,  8.02057642,  7.43559375,  9.40410571,  9.83741883,
        8.27870067,  5.11755767,  8.38619321,  4.35433208,  8.11544629,
        9.16808733,  9.18821746,  6.90231704,  9.97421013,  9.65441121,
        9.16707496,  6.17630929,  9.29702529, 10.83296979, 10.20189154,
       10.4843975 , 10.08785504,  8.37960279, 10.80592313,  5.88987075,
        9.61922433,  5.88986063,  9.02789358,  9.55822921,  9.64017987,
        9.82517779,  8.79602825,  4.64208813,  4.48370246, 10.96542992,
        6.74131088,  8.32562296, 10.97320046,  8.18951925, 10.289425  ,
        9.29117879,  9.00435404,  6.5839725 ,  6.16025421,  9.43292804,
       10.24446488, 10.32451788,  8.75819992,  5.29722096, 10.10756163,
       10.90328883,  8.44238333, 10.24841996, 10.32997625, 10.10852363,
        8.69988954,  8.41755579,  6.44845542,  6.23120688,  8.7542985 ,
        8.38812342,  7.73656804,  7.73277575,  7.7113025 ,  8.83201517,
        8.12267583,  7.751529  ,  7.56899425,  9.89575379, 10.11695429,
        9.793162  , 10.37371713,  5.18435954, 10.39421038,  8.25351279,
       10.25457367,  9.02112975,  8.98889417,  8.56493996,  0.        ]), 'delta_distances': array([10.41242767, 12.48730633, 11.05948817, 11.50080317, 11.94325242,
        7.52799392, 13.19648408, 15.58619825, 11.15004092, 11.58247908,
       13.05906967, 10.41997858, 14.65893508, 12.85047433,  9.13538517,
       11.52073225, 10.55921875, 11.96138192, 11.83640808, 12.2419255 ,
       10.72843358, 11.495082  , 14.19223342, 11.609366  , 10.85492658,
       10.8104825 , 10.33359325, 12.21105533, 11.57340792, 13.69683733,
       12.04627067, 13.598323  , 11.63939442, 11.68735508, 12.53775933,
       14.25736258, 11.83423092, 10.65710725, 10.96328483, 15.09465817,
       12.48572692, 12.79300258, 14.2206835 , 12.90490325, 10.43314583,
       10.20712525, 14.355849  , 11.13588367, 13.86375133, 11.59356925,
       11.52895042, 11.98117825, 14.03220933, 11.42176167, 11.27523075,
       11.53218575, 11.30533375, 12.76814242, 10.1399515 , 11.51350117,
       10.44185908, 14.44043375, 10.13830642,  8.81777742,  9.93687483,
       10.87886042, 12.542364  , 13.01340267, 12.0482815 , 10.40481617,
       11.72612   , 15.56849058, 15.93970375, 10.55242942, 12.24010175,
       11.33640767, 12.29220733, 12.20077858, 13.53307908, 12.00789108,
       10.95580125, 12.75723467, 11.18088458, 12.36173083,  9.085847  ,
       13.49236892, 16.60343225, 10.95411158, 10.76692967, 10.71583108,
       11.58272767, 10.01093325, 12.45148058, 12.51443208, 13.44943825,
       13.41405075, 14.97983267, 10.29055517, 15.25862367, 13.81103967,
       13.24845217,  9.26334542, 12.94582558, 11.76451492, 13.473231  ,
       12.62583892, 12.63126025, 14.01851442, 12.75751017, 11.71201058,
       13.58003967, 10.70658192, 13.30548333, 12.8423805 ,  9.64600583,
       10.309095  , 14.81112008, 11.95151633, 12.45034008,  8.48864008,
       13.2947205 , 11.28238942, 13.00752817, 13.09413083, 12.68074667,
       15.02521442,  9.94174167, 11.25754958,  9.67654075, 13.12915925,
       10.12606525, 12.778651  , 11.65166958, 10.49379458, 12.2494135 ,
       10.42337492, 12.50157883, 13.32829308,  9.82894858,  9.92895825,
       12.55350375, 12.44947975, 13.27379092, 13.30903817, 10.91633208,
       11.38117633, 11.05067783, 10.02287133, 13.535964  , 11.41337692,
       12.71303717, 15.56567558,  9.147384  ,  9.617898  , 11.81302508,
       11.41190158, 12.71935383,  9.54063117, 10.52865358, 11.72929208,
       12.20527642, 11.35918217, 11.78662708, 10.72868758, 12.7148515 ,
       13.65138408, 10.25266633, 13.21016008, 11.5459455 , 14.92332417,
       11.36197933, 11.60535517, 14.44231108, 14.312415  , 12.37527117,
       12.16273925, 12.13093733, 13.08018317,  9.18570042, 13.48725575,
        8.68708133, 12.29202533, 10.47282683, 11.88838392, 11.64912042,
       13.28780342, 10.26820492, 11.0950855 , 10.95661575, 13.78719833,
       12.59805408, 13.18108433,  9.74388225, 10.41004175, 12.1363685 ,
       11.277898  , 11.25577892, 13.21965225, 10.69656492,  0.        ]), 'locations': array([71, 22, 66, 20, 18, 17, 26, 25, 13, 35, 15, 67,  7, 14, 60, 61, 16,
       34, 13, 18, 69, 56, 15, 71, 67, 67, 32, 15, 10, 18, 13,  9,  9, 14,
       21, 30, 36, 60, 58,  6, 12, 22, 14, 30, 16, 18, 25,  8, 25, 11, 66,
       67, 24, 68,  8, 22, 23, 25, 18, 70, 59, 20, 17, 67, 52, 10, 69, 24,
       19, 19, 18, 22, 71, 13,  7, 12, 70, 35, 23, 22, 57, 10, 67, 18, 54,
       22,  7, 49, 28, 17, 71, 69, 27, 20, 26, 13,  8, 50, 21,  6, 20, 68,
       23, 67, 17, 20, 69, 20, 23, 18, 28, 23, 19, 17, 47, 53, 21, 18, 67,
        9, 14, 69, 19, 11, 69, 19, 15, 68, 11, 14, 15, 16, 17, 21, 20, 10,
       24, 16, 55, 23, 20, 11, 69, 26, 11, 21, 13, 67, 19, 16, 20, 24, 16,
       14, 15, 17, 15, 35, 15, 28, 24, 12, 13, 19, 18, 25, 21, 17, 19, 18,
       28, 11, 24, 22, 21, 19, 68, 17, 16, 13, 14, 15, 17, 11, 12, 10, 68,
       12, 17, 16, 69, 14, 21, 30, 26, 36,  6, 17, 24, 17])}, {'ts_index': 23, 'loc': 27, 'gap': 0.7474240877547897, 'distances': array([2.866897  , 2.47903683, 2.20761479, 2.87390438, 2.79270496,
       2.55639567, 1.97594029, 3.96745783, 2.69409246, 3.08994763,
       2.49230975, 2.473232  , 3.38681833, 3.15974246, 2.78890325,
       4.17299121, 3.72447625, 0.        , 2.14684858, 2.00489987,
       2.67128175, 3.11510929, 3.80832842, 4.18497304, 3.799554  ,
       1.79586708, 2.46686746, 4.00133029, 2.17839592, 2.96968467,
       2.79415296, 2.29980979, 2.13893675, 2.25681046, 4.05281246,
       2.583167  , 3.91609596, 2.86296696, 2.64361025, 2.69185525,
       4.1483345 , 2.94143221, 2.16995921, 1.77803542, 2.45992112,
       2.95532446, 2.21690692, 2.41701725, 4.12886662, 3.5779495 ,
       2.20499629, 2.17434771, 2.63319658, 2.57543329, 2.86297971,
       1.87985654, 4.31849625, 2.35136046, 3.36320208, 2.73210533,
       2.2510985 , 3.20133442, 3.05967454, 3.33641479, 3.34698437,
       4.76518812, 4.90250083, 2.85431083, 2.41924263, 3.24068892,
       2.29587496, 1.51288542, 3.08423717, 2.20611925, 3.85276421,
       2.75910842, 2.39777196, 2.67290421, 4.59068625, 2.97570675,
       2.67232046, 3.97201208, 2.23755825, 3.03550279, 3.03700013,
       2.23683796, 3.67675608, 3.13062804, 2.53545   , 2.85314421,
       2.71470038, 2.75136033, 1.74346042, 2.7088765 , 3.31661846,
       2.61741225, 1.96830513, 4.205313  , 4.62439508, 3.88062871,
       2.61815687, 2.20313192, 3.11396433, 3.74992479, 4.01666333,
       3.74702412, 2.76919987, 2.12294212, 3.29461571, 2.80346617,
       2.60319442, 2.12636488, 2.66801167, 2.462747  , 2.06134283,
       1.88635537, 2.42238812, 2.69421821, 1.95919042, 2.53366379,
       1.90337104, 3.00192675, 1.47896287, 3.73850833, 2.39521363,
       2.98616917, 2.81340388, 2.69745729, 2.55288662, 1.68839483,
       2.79908337, 2.35450708, 2.8439465 , 2.00740608, 3.46776254,
       2.10093587, 1.90089454, 2.40428342, 4.02731571, 1.96244375,
       4.54966567, 1.86557929, 2.9389965 , 2.64273896, 3.75960767,
       2.73678779, 2.76617587, 2.48150854, 3.18910296, 2.79526842,
       4.191423  , 2.37356758, 4.274787  , 2.0740295 , 2.96427683,
       2.18931483, 2.7012565 , 1.66036979, 2.57380363, 2.00082992,
       3.91179463, 1.89552783, 2.37359129, 2.26228742, 2.28907775]), 'delta_distances': array([7.04801408, 5.07940675, 5.32837608, 5.071662  , 7.53486517,
       6.37822133, 3.69011233, 7.71220458, 4.99040067, 5.07746217,
       6.39965017, 6.02849992, 6.45120758, 7.00020517, 6.42464308,
       5.93182892, 5.45511258, 0.        , 5.38493225, 4.73410042,
       6.26443292, 8.35330942, 7.33576308, 7.84986117, 7.82147233,
       5.89088092, 6.3577435 , 7.59052925, 5.50856475, 5.93429483,
       5.46634392, 4.17264375, 6.856536  , 5.98329417, 7.42435525,
       6.43366483, 7.2209655 , 5.58657933, 5.56869267, 5.7273895 ,
       8.13310292, 7.72559158, 4.62696058, 4.73383733, 5.12046233,
       4.31789792, 5.11929142, 5.22698508, 6.89587975, 9.05661225,
       6.04680267, 4.1098635 , 6.855432  , 7.34559958, 6.43138983,
       4.96842533, 5.59837092, 6.12154883, 5.54323375, 5.31149283,
       5.13966892, 8.45055675, 6.69753067, 7.070874  , 9.13360725,
       8.00215508, 7.60972792, 6.48748658, 5.26679483, 5.99785933,
       7.92223617, 3.51131192, 5.89107867, 7.68467567, 7.36679467,
       4.91910342, 5.921017  , 4.22431308, 8.004222  , 6.5500215 ,
       4.02757533, 7.6581545 , 6.12830292, 5.32680892, 8.36565075,
       4.63593475, 6.35942825, 7.113402  , 3.90760392, 6.36279675,
       5.39836   , 6.95727567, 5.2888225 , 5.81814775, 5.45235533,
       7.06422475, 4.55358592, 7.35370308, 9.75036425, 7.81169667,
       5.39190633, 5.38205675, 7.399943  , 8.04829208, 7.31281742,
       7.89465367, 5.91397725, 4.60381108, 6.478285  , 4.8086815 ,
       4.86428375, 5.4001905 , 5.72815183, 6.78103058, 4.70538092,
       4.717072  , 5.61218508, 7.47133525, 4.55172592, 4.93752183,
       5.69076467, 6.01033642, 4.28927058, 7.4630305 , 6.45553042,
       8.06070758, 6.1726655 , 6.15134658, 5.31654708, 4.19125633,
       5.64150025, 4.85930425, 5.659088  , 4.81028267, 5.61118608,
       5.56591475, 3.83844667, 5.57041742, 6.9489545 , 5.2974865 ,
       8.87341408, 5.41561325, 6.71375883, 6.03036625, 7.94331325,
       6.06170875, 5.9966715 , 5.24490908, 6.06989008, 5.83387692,
       7.09918892, 4.55129242, 5.85356683, 3.55798442, 5.28007792,
       4.85398192, 4.65847458, 3.56252217, 5.49301417, 4.677953  ,
       7.87259125, 4.25373275, 4.39492725, 4.98707933, 5.38725542]), 'locations': array([28, 18, 39, 39, 29, 23, 42,  0, 38, 43, 35, 26, 32, 19, 18, 18, 23,
       27, 21, 36, 30, 17, 25, 30, 20, 20, 19, 37, 29, 29, 10, 37, 30, 25,
       21, 26, 23, 35, 22, 14, 28, 36, 40, 18, 25, 50, 17, 33, 43, 27, 24,
       46, 37, 22, 29, 25, 26, 25, 31, 22, 25, 29, 24, 23, 32, 37, 20, 28,
       47, 31, 39, 28, 27, 21, 12, 44, 27, 42, 19, 32, 46, 18, 33, 37, 20,
       36, 50, 19, 40, 30, 20, 25, 35, 35, 17, 30, 41, 26, 33, 25, 28, 21,
       29,  5, 10, 30, 19, 43, 24, 25, 21, 31, 25, 20, 26, 39, 24, 32, 38,
       22, 36, 26, 38, 29, 26, 30, 28, 29, 14, 40, 25, 23, 25, 19, 24, 18,
       24, 21, 23, 31, 21, 34, 25, 24, 25, 31, 32, 19, 22, 24, 23, 42, 45,
       15, 22, 20, 20, 43, 28, 37,  8, 41, 16, 29, 27])}, {'ts_index': 30, 'loc': 12, 'gap': 0.7353891681210478, 'distances': array([3.21417146, 1.89459596, 1.87732071, 3.37823721, 0.        ,
       2.17435812, 1.80844517, 1.60652108, 2.92416454, 3.0053305 ,
       3.33835688, 1.86333854, 3.14745775, 2.87778283, 3.61028342,
       3.17917863, 3.5002725 , 1.66260192, 1.72095208, 1.43938667,
       1.39894312, 2.37415763, 2.30738508, 1.63239067, 2.09872954,
       2.21111338, 1.78011492, 1.51387746, 2.25261696, 1.42301404]), 'delta_distances': array([6.85467267, 4.25824408, 4.913915  , 6.62312517, 0.        ,
       4.95299117, 5.005222  , 4.65673233, 6.165863  , 8.77902233,
       7.677056  , 4.36181292, 6.87980492, 6.09638825, 5.31620883,
       5.42197992, 6.24474367, 4.68860017, 4.33433325, 3.37647392,
       4.97968442, 6.05169967, 4.79162783, 4.09251008, 4.45565342,
       5.47731458, 5.28280942, 4.81083842, 5.12225633, 4.0258995 ]), 'locations': array([ 8, 10,  6, 14, 12,  6, 16,  4, 12, 10, 26,  8,  9,  0, 49, 12, 71,
       10,  8, 12, 14,  4, 12, 12,  6,  7, 14,  7,  9, 15])}, {'ts_index': 81, 'loc': 5, 'gap': 1.160562412143678, 'distances': array([6.71815925, 6.00014933, 5.17617663, 3.46642342, 6.78605113,
       0.        , 6.78987604, 6.33926696, 6.36642467, 7.54835112]), 'delta_distances': array([10.6521705 ,  9.18861717,  9.48115583,  6.16644325, 10.36200642,
        0.        , 11.7367855 ,  8.33212267,  8.22995483,  6.701192  ]), 'locations': array([ 6, 14, 17,  8, 13,  5,  0, 12, 37, 61])}, {'ts_index': 98, 'loc': 7, 'gap': 1.3107999679461364, 'distances': array([2.89055071, 3.37749567, 5.18405275, 2.74226425, 5.2981915 ,
       3.73957783, 0.        ]), 'delta_distances': array([ 5.28820767,  6.53563158, 10.07635642,  5.82036817,  8.96942842,
        7.43567325,  0.        ]), 'locations': array([11, 16, 31,  6, 15,  9,  7])}], 'clusters': array([2, 2, 2, 1, 1, 1, 2, 2, 2, 2, 1, 1, 5, 2, 2, 2, 2, 2, 2, 2, 1, 3,
       3, 2, 1, 2, 2, 2, 2, 5, 3, 3, 1, 2, 2, 3, 2, 2, 2, 2, 2, 2, 3, 2,
       1, 1, 4, 2, 2, 2, 4, 1, 2, 2, 2, 2, 1, 2, 2, 2, 0, 2, 2, 1, 2, 2,
       1, 2, 2, 2, 1, 3, 2, 1, 2, 2, 2, 2, 2, 2, 2, 4, 5, 2, 2, 1, 2, 2,
       2, 2, 2, 0, 2, 2, 2, 5, 2, 2, 5, 2, 2, 2, 2, 2, 1, 2, 2, 2, 2, 2,
       2, 2, 2, 2, 2, 3, 3, 3, 2, 1, 2, 2, 3, 3, 3, 2, 1, 2, 1, 2, 2, 2,
       1, 2, 2, 2, 1, 2, 2, 2, 2, 2, 2, 2, 1, 2, 1, 2, 3, 2, 2, 2, 1, 1,
       2, 1, 2, 2, 2, 2, 2, 2, 1, 1, 2, 2, 2, 2, 1, 3, 2, 3, 2, 2, 2, 3,
       2, 1, 1, 2, 2, 2, 2, 3, 2, 3, 2, 2, 2, 2, 2, 2, 1, 2, 3, 2, 2, 2,
       2, 1]), 'time': 4260.421989679337}}, 'ED': {24: {'RI': 0.5660301507537688, 'num_clusters': 5, 'uShapelets': [{'ts_index': 142, 'loc': 7, 'gap': 0.04223858685761539, 'distances': array([0.27087772, 0.26273628, 0.26334338, 0.19762623, 0.27953206,
       0.20024861, 0.28179972, 0.20427484, 0.29377281, 0.26870193,
       0.29482439, 0.25174892, 0.30049346, 0.28114108, 0.22221743,
       0.19838107, 0.15485388, 0.21168004, 0.25369213, 0.23718498,
       0.33997203, 0.30686482, 0.20751622, 0.23937025, 0.20086725,
       0.25283798, 0.28166503, 0.24768025, 0.29876042, 0.35481459,
       0.23614914, 0.23588039, 0.30532125, 0.2926556 , 0.35228933,
       0.24641094, 0.29366018, 0.2027032 , 0.34249416, 0.37689382,
       0.26508745, 0.20499474, 0.21898204, 0.15720263, 0.22849522,
       0.15113569, 0.29979723, 0.21494775, 0.18423736, 0.30817407,
       0.3172883 , 0.27833458, 0.16588563, 0.32839063, 0.25362493,
       0.23379871, 0.34895283, 0.22049856, 0.16936703, 0.2597845 ,
       0.33785775, 0.32792306, 0.205046  , 0.19040305, 0.21239562,
       0.27385193, 0.23756032, 0.20083047, 0.24032201, 0.27363622,
       0.2160536 , 0.33606202, 0.23756796, 0.24648703, 0.23054593,
       0.29630273, 0.25911774, 0.18030236, 0.21649305, 0.23478868,
       0.27781184, 0.27681686, 0.29949949, 0.21899985, 0.26433622,
       0.32263347, 0.33400569, 0.27419843, 0.20310641, 0.26338675,
       0.28114356, 0.34982801, 0.23144649, 0.27311381, 0.21159108,
       0.30595374, 0.2726102 , 0.24877991, 0.34716818, 0.34769273,
       0.18517858, 0.20769447, 0.11329917, 0.20635808, 0.23111317,
       0.20143822, 0.23568894, 0.17876176, 0.18591081, 0.2449295 ,
       0.17573897, 0.23085792, 0.24215659, 0.21273638, 0.1952525 ,
       0.27020756, 0.14869523, 0.15869024, 0.20191364, 0.23830675,
       0.18106294, 0.23612467, 0.19517659, 0.19977648, 0.22385532,
       0.20131153, 0.16530978, 0.21498909, 0.20735464, 0.15274939,
       0.16201045, 0.14997557, 0.1758795 , 0.14090076, 0.17606946,
       0.23896277, 0.19201463, 0.19271699, 0.24817366, 0.19109496,
       0.19995114, 0.19030386, 0.        , 0.20464836, 0.24157472,
       0.20481401, 0.23053717, 0.21733567, 0.2307222 , 0.15800749,
       0.17140265, 0.24272276, 0.17636466, 0.17443806, 0.17542123,
       0.20226342, 0.20301154, 0.22110576, 0.17985384, 0.24670858,
       0.23921471, 0.1892931 , 0.22934642, 0.14562837, 0.23500407,
       0.21392995, 0.19550304, 0.16249877, 0.17218351, 0.19041971,
       0.1708945 , 0.21584821, 0.19538727, 0.26312171, 0.14935371,
       0.22795857, 0.19525726, 0.22390723, 0.14788101, 0.1728755 ,
       0.17300472, 0.2167317 , 0.16212385, 0.1739414 , 0.21116645,
       0.28994764, 0.29478881, 0.17770585, 0.19933285, 0.18112927,
       0.28298185, 0.20462545, 0.18923612, 0.16303173, 0.17890859,
       0.19298493, 0.198016  , 0.18100391, 0.12255157, 0.15540297]), 'delta_distances': array([0., 0., 0., 0., 0., 0., 0., 0., 0., 0., 0., 0., 0., 0., 0., 0., 0.,
       0., 0., 0., 0., 0., 0., 0., 0., 0., 0., 0., 0., 0., 0., 0., 0., 0.,
       0., 0., 0., 0., 0., 0., 0., 0., 0., 0., 0., 0., 0., 0., 0., 0., 0.,
       0., 0., 0., 0., 0., 0., 0., 0., 0., 0., 0., 0., 0., 0., 0., 0., 0.,
       0., 0., 0., 0., 0., 0., 0., 0., 0., 0., 0., 0., 0., 0., 0., 0., 0.,
       0., 0., 0., 0., 0., 0., 0., 0., 0., 0., 0., 0., 0., 0., 0., 0., 0.,
       0., 0., 0., 0., 0., 0., 0., 0., 0., 0., 0., 0., 0., 0., 0., 0., 0.,
       0., 0., 0., 0., 0., 0., 0., 0., 0., 0., 0., 0., 0., 0., 0., 0., 0.,
       0., 0., 0., 0., 0., 0., 0., 0., 0., 0., 0., 0., 0., 0., 0., 0., 0.,
       0., 0., 0., 0., 0., 0., 0., 0., 0., 0., 0., 0., 0., 0., 0., 0., 0.,
       0., 0., 0., 0., 0., 0., 0., 0., 0., 0., 0., 0., 0., 0., 0., 0., 0.,
       0., 0., 0., 0., 0., 0., 0., 0., 0., 0., 0., 0., 0.]), 'locations': array([ 7, 10, 20,  9, 16,  9, 21, 11,  7, 29,  2,  5,  2, 12, 45, 12,  9,
       11,  3,  5, 41,  9,  9, 10,  1,  6, 24,  5,  8, 13, 12,  6,  8,  8,
       16, 16, 11, 10, 36, 36, 10, 11,  5,  7, 12, 11, 10,  4,  9,  5,  7,
        1, 16, 24,  5,  7, 64, 21,  3, 20, 27, 10, 10, 13, 34, 30, 13, 11,
       12, 14,  8, 12,  8, 11,  6, 13,  7, 10,  8, 10,  9,  9,  1,  8,  9,
        8,  6, 17, 12, 14,  8, 51, 15, 10, 15, 11,  7, 16, 62, 19, 11,  4,
       16, 11, 11, 10, 14, 13,  9,  9, 10,  7,  1,  7, 18, 10,  8,  9,  6,
        7,  2,  7, 13,  4, 12,  8,  9, 16,  8, 10, 13, 10, 10,  9, 13,  3,
        4, 10,  7,  8, 16, 22,  7, 19,  8, 14,  8, 22, 10,  6, 14, 11,  9,
        8,  9,  9,  4, 16,  8, 13, 12,  6, 12, 11,  6,  2, 10,  6, 12,  9,
       12,  9, 13,  7, 11,  5,  5, 10, 12,  7, 11,  4, 13,  6, 11,  9,  3,
       10,  6,  9, 14, 10, 12, 10, 15, 23,  4,  9, 10, 11])}, {'ts_index': 85, 'loc': 41, 'gap': 0.033781752280345856, 'distances': array([0.32449913, 0.30491624, 0.37982548, 0.3216721 , 0.32215149,
       0.33331304, 0.34888304, 0.34270363, 0.25391259, 0.25202053,
       0.34893118, 0.32727292, 0.34567813, 0.36925072, 0.31331113,
       0.34128428, 0.35008123, 0.32116152, 0.36701161, 0.21262392,
       0.23652695, 0.27880242, 0.19728688, 0.34639509, 0.34716553,
       0.        , 0.34742509, 0.29372182, 0.35306539, 0.22311368,
       0.33685416, 0.36052812, 0.29904323, 0.35792605]), 'delta_distances': array([0., 0., 0., 0., 0., 0., 0., 0., 0., 0., 0., 0., 0., 0., 0., 0., 0.,
       0., 0., 0., 0., 0., 0., 0., 0., 0., 0., 0., 0., 0., 0., 0., 0., 0.]), 'locations': array([45, 37, 70, 46, 45, 50, 62, 29, 47,  1, 48, 40, 55, 54, 44, 44, 30,
       43, 60, 42, 16, 39, 41, 48, 47, 41, 40, 36, 42, 40, 69, 66, 46, 64])}, {'ts_index': 33, 'loc': 20, 'gap': 0.029878079479313147, 'distances': array([0.30239609, 0.30354189, 0.38839556, 0.43364774, 0.29448313,
       0.41370339, 0.27272344, 0.26821223, 0.        , 0.31781986,
       0.34024976, 0.29804279, 0.31655728, 0.35757452, 0.27172744,
       0.37233741, 0.29618522, 0.33253313, 0.32786203, 0.42352328,
       0.34328561, 0.40479133, 0.40244789, 0.29760312, 0.40079477,
       0.24667997, 0.27528914]), 'delta_distances': array([0., 0., 0., 0., 0., 0., 0., 0., 0., 0., 0., 0., 0., 0., 0., 0., 0.,
       0., 0., 0., 0., 0., 0., 0., 0., 0., 0.]), 'locations': array([37, 24, 13, 31,  7, 17, 38, 16, 20, 24, 28,  7, 37, 23, 17, 24, 40,
       26, 23, 36, 31, 65, 30, 32, 44, 14, 43])}, {'ts_index': 21, 'loc': 21, 'gap': 0.04104624681863883, 'distances': array([0.5278274 , 0.37778726, 0.        , 0.51793029, 0.44678191,
       0.51768969, 0.51043576]), 'delta_distances': array([0., 0., 0., 0., 0., 0., 0.]), 'locations': array([49,  5, 21,  5,  5, 18, 21])}, {'ts_index': 10, 'loc': 20, 'gap': 0.07263019422077549, 'distances': array([0.        , 0.48251428, 0.40988408, 0.48559883]), 'delta_distances': array([0., 0., 0., 0.]), 'locations': array([20, 16, 28, 34])}], 'clusters': array([1, 1, 1, 1, 1, 1, 3, 1, 3, 1, 5, 1, 4, 1, 1, 1, 1, 1, 1, 1, 3, 4,
       1, 1, 1, 1, 3, 1, 3, 2, 1, 1, 2, 3, 3, 1, 3, 1, 3, 3, 1, 1, 1, 1,
       1, 1, 3, 1, 1, 3, 3, 1, 1, 3, 1, 1, 2, 1, 1, 1, 2, 3, 1, 1, 1, 1,
       1, 1, 1, 1, 1, 2, 1, 1, 1, 3, 1, 1, 1, 1, 1, 1, 0, 1, 1, 2, 3, 1,
       1, 1, 1, 4, 1, 1, 1, 5, 1, 1, 2, 3, 1, 1, 1, 1, 1, 1, 1, 1, 1, 1,
       1, 1, 1, 1, 1, 1, 1, 1, 1, 1, 1, 1, 1, 1, 1, 1, 1, 1, 1, 1, 1, 1,
       1, 1, 1, 1, 1, 1, 1, 1, 1, 1, 1, 1, 1, 1, 1, 1, 1, 1, 1, 1, 1, 1,
       1, 1, 1, 1, 1, 1, 1, 1, 1, 1, 1, 1, 1, 1, 1, 1, 1, 1, 1, 1, 1, 1,
       1, 1, 1, 1, 1, 1, 1, 1, 1, 0, 3, 1, 1, 1, 3, 1, 1, 1, 1, 1, 1, 1,
       1, 1]), 'time': 1717.8929262161255}}}