{'FOTS': {5: {'RI': 0.4665829145728643, 'num_clusters': 8, 'uShapelets': [{'ts_index': 66, 'loc': 42, 'gap': 0.10390533868451718, 'distances': array([0.39582348, 0.40639321, 0.34944095, 0.34435126, 0.1565297 ,
       0.33233236, 0.16215599, 0.35596718, 0.12168017, 0.30109848,
       0.22967541, 0.40453482, 0.42150708, 0.18222132, 0.32571726,
       0.39267178, 0.15744688, 0.4219518 , 0.17305092, 0.3963758 ,
       0.25589774, 0.16040656, 0.39559602, 0.37560152, 0.40490823,
       0.39322761, 0.19192494, 0.11600922, 0.30447885, 0.40562413,
       0.08922726, 0.28123714, 0.40926002, 0.30611276, 0.1136989 ,
       0.42163462, 0.39323831, 0.32439635, 0.40109972, 0.40816562,
       0.35109988, 0.10374241, 0.40878435, 0.15285182, 0.35055819,
       0.34215406, 0.29380402, 0.27496111, 0.42851979, 0.16421239,
       0.36422607, 0.40117728, 0.28705585, 0.17926499, 0.30541841,
       0.40562106, 0.26767667, 0.33234564, 0.32170306, 0.36861321,
       0.29904156, 0.10038725, 0.26668706, 0.39511995, 0.40238825,
       0.38242411, 0.        , 0.31621195, 0.18393075, 0.34825821,
       0.326725  , 0.37657851, 0.3239036 , 0.39271178, 0.35848865,
       0.31599542, 0.31236484, 0.37203742, 0.37318248, 0.18377548,
       0.15965761, 0.12716375, 0.41163947, 0.36919134, 0.22951869,
       0.29973274, 0.41045137, 0.13295053, 0.1246475 , 0.40556371,
       0.26840598, 0.3720507 , 0.28446415, 0.10419323, 0.42224641,
       0.40786925, 0.18376728, 0.42506232, 0.19521452, 0.32761777,
       0.15857325, 0.2241662 , 0.23848671, 0.40718281, 0.23229658,
       0.06681295, 0.22133959, 0.41772382, 0.27730034, 0.4065602 ,
       0.24551311, 0.36136089, 0.13156284, 0.14934284, 0.29097533,
       0.09378579, 0.29166627, 0.2351019 , 0.22971172, 0.12532848,
       0.36570073, 0.37114923, 0.26212628, 0.20063692, 0.3643367 ,
       0.13936434, 0.34978204, 0.32327872, 0.31156739, 0.41767877,
       0.38779225, 0.2441296 , 0.13984462, 0.38023071, 0.17718223,
       0.09745195, 0.33719758, 0.18011735, 0.37641133, 0.20731882,
       0.33458174, 0.40039806, 0.40022325, 0.41418225, 0.1398102 ,
       0.15709241, 0.38742278, 0.24689027, 0.37750383, 0.30236771,
       0.20122879, 0.19069354, 0.11466088, 0.42929192, 0.37513023,
       0.40991253, 0.16370287, 0.35159152, 0.447758  , 0.31953644,
       0.38950735, 0.41589841, 0.41103124, 0.13538581, 0.24445208,
       0.29166989, 0.39131348, 0.24538097, 0.40677436, 0.37483253,
       0.37322407, 0.3886554 , 0.34030347, 0.34450234, 0.40703303,
       0.38128879, 0.18425664, 0.25872801, 0.35347018, 0.33320484,
       0.34612505, 0.15692879, 0.16102679, 0.26338355, 0.37189563,
       0.1615144 , 0.27662361, 0.38091706, 0.34191199, 0.29358699,
       0.20542658, 0.38629527, 0.17296236, 0.39263789, 0.3275703 ,
       0.40520351, 0.13528145, 0.34221911, 0.45889018, 0.35741867]), 'delta_distances': array([0., 0., 0., 0., 0., 0., 0., 0., 0., 0., 0., 0., 0., 0., 0., 0., 0.,
       0., 0., 0., 0., 0., 0., 0., 0., 0., 0., 0., 0., 0., 0., 0., 0., 0.,
       0., 0., 0., 0., 0., 0., 0., 0., 0., 0., 0., 0., 0., 0., 0., 0., 0.,
       0., 0., 0., 0., 0., 0., 0., 0., 0., 0., 0., 0., 0., 0., 0., 0., 0.,
       0., 0., 0., 0., 0., 0., 0., 0., 0., 0., 0., 0., 0., 0., 0., 0., 0.,
       0., 0., 0., 0., 0., 0., 0., 0., 0., 0., 0., 0., 0., 0., 0., 0., 0.,
       0., 0., 0., 0., 0., 0., 0., 0., 0., 0., 0., 0., 0., 0., 0., 0., 0.,
       0., 0., 0., 0., 0., 0., 0., 0., 0., 0., 0., 0., 0., 0., 0., 0., 0.,
       0., 0., 0., 0., 0., 0., 0., 0., 0., 0., 0., 0., 0., 0., 0., 0., 0.,
       0., 0., 0., 0., 0., 0., 0., 0., 0., 0., 0., 0., 0., 0., 0., 0., 0.,
       0., 0., 0., 0., 0., 0., 0., 0., 0., 0., 0., 0., 0., 0., 0., 0., 0.,
       0., 0., 0., 0., 0., 0., 0., 0., 0., 0., 0., 0., 0.]), 'locations': array([75, 14, 42, 82, 50, 40, 19, 10, 51, 73, 38, 28, 34, 43, 87, 42,  9,
       24, 77,  0,  1,  3, 80, 34, 18, 56, 77, 30, 29, 86, 63, 48,  5, 79,
       28, 77, 76, 57, 18, 49, 14, 58, 43, 58,  5,  6, 75,  8,  2, 46, 74,
       56, 41, 85, 73, 66, 36, 19,  0, 74, 82, 75, 66, 90, 32, 88, 42, 79,
       67, 13, 52, 52, 84,  2, 65, 42, 64, 43, 48, 52, 61, 40,  8, 36, 81,
        4, 37, 30, 85, 47, 78, 21,  6, 43,  4, 25, 48,  5, 74, 42, 15, 48,
        7, 66, 88, 34, 41, 19, 75,  6, 90, 46,  9, 82, 53, 42,  3, 87, 34,
       45, 44, 36, 85, 86,  9, 28,  7, 65,  9, 77,  6,  8, 76, 35, 65, 39,
       79, 77,  1, 36, 44, 50, 61, 10, 43,  3, 39, 49, 76, 56, 68, 76, 68,
       68, 86, 22, 38, 50, 78, 87, 73,  3, 13, 42, 46, 55, 75, 77, 48, 46,
       59, 86, 84, 35, 77, 57, 50, 47, 39,  4, 67, 80, 43,  4, 51,  4, 56,
       62,  3,  8, 46, 35, 50,  7, 80,  4, 39, 38,  4, 78])}, {'ts_index': 177, 'loc': 56, 'gap': 0.0927760874854191, 'distances': array([0.37317934, 0.42506346, 0.33086323, 0.29050256, 0.40854642,
       0.37450507, 0.28598685, 0.27272632, 0.31010036, 0.35654029,
       0.38820806, 0.24471087, 0.40186865, 0.29260686, 0.1476595 ,
       0.34471794, 0.35840352, 0.33653757, 0.33335405, 0.3393057 ,
       0.32201653, 0.34859008, 0.32849507, 0.39114352, 0.36913074,
       0.28912226, 0.19844497, 0.23022612, 0.16968745, 0.19520864,
       0.32659867, 0.11678402, 0.32778558, 0.32990422, 0.40393088,
       0.37675671, 0.37013707, 0.31448437, 0.30404371, 0.18304007,
       0.10301857, 0.29672085, 0.36578417, 0.2984659 , 0.13926174,
       0.28874086, 0.26818503, 0.39794761, 0.18605435, 0.33986584,
       0.3681243 , 0.29199895, 0.33751657, 0.1457092 , 0.15795415,
       0.35137212, 0.21128397, 0.32105741, 0.31366421, 0.41643969,
       0.3429556 , 0.3387768 , 0.20219595, 0.34072636, 0.34145229,
       0.39768332, 0.34802321, 0.3192372 , 0.3777273 , 0.42558726,
       0.36884069, 0.19787154, 0.30776458, 0.38027069, 0.18712516,
       0.44885266, 0.26529654, 0.40450744, 0.31107127, 0.29945403,
       0.35860563, 0.39329665, 0.37909765, 0.36875102, 0.06969506,
       0.22557542, 0.30478106, 0.38824937, 0.38240007, 0.40245483,
       0.22208124, 0.3863923 , 0.3595758 , 0.38255262, 0.1727664 ,
       0.32010495, 0.34647526, 0.36873401, 0.41341827, 0.384559  ,
       0.38616369, 0.35105081, 0.34139542, 0.36214375, 0.28419117,
       0.31030421, 0.36465154, 0.31540671, 0.27697854, 0.33036565,
       0.14136683, 0.12317722, 0.36912951, 0.33129101, 0.35761145,
       0.37877396, 0.15514415, 0.34821693, 0.3686428 , 0.36648514,
       0.33321259, 0.33154212, 0.42167346, 0.30634922, 0.20351405,
       0.40089334, 0.3943401 , 0.19542199, 0.34438071, 0.25533227,
       0.        , 0.38589536, 0.11089501, 0.37604313, 0.35543588,
       0.35871821, 0.36769187, 0.2565384 , 0.24785084, 0.15291807,
       0.34688716, 0.33241977, 0.41480184, 0.39298105, 0.32558379,
       0.32049032, 0.22971826]), 'delta_distances': array([0., 0., 0., 0., 0., 0., 0., 0., 0., 0., 0., 0., 0., 0., 0., 0., 0.,
       0., 0., 0., 0., 0., 0., 0., 0., 0., 0., 0., 0., 0., 0., 0., 0., 0.,
       0., 0., 0., 0., 0., 0., 0., 0., 0., 0., 0., 0., 0., 0., 0., 0., 0.,
       0., 0., 0., 0., 0., 0., 0., 0., 0., 0., 0., 0., 0., 0., 0., 0., 0.,
       0., 0., 0., 0., 0., 0., 0., 0., 0., 0., 0., 0., 0., 0., 0., 0., 0.,
       0., 0., 0., 0., 0., 0., 0., 0., 0., 0., 0., 0., 0., 0., 0., 0., 0.,
       0., 0., 0., 0., 0., 0., 0., 0., 0., 0., 0., 0., 0., 0., 0., 0., 0.,
       0., 0., 0., 0., 0., 0., 0., 0., 0., 0., 0., 0., 0., 0., 0., 0., 0.,
       0., 0., 0., 0., 0., 0., 0., 0., 0., 0., 0.]), 'locations': array([61, 36,  4, 76, 34, 32, 58,  2, 13, 32, 44, 26, 50, 90, 24, 77,  9,
       35, 23, 86, 80, 67, 44, 30, 45, 80, 90, 64, 20, 76, 64, 54, 77, 55,
       36, 36, 17, 82, 75, 31, 76, 49, 38, 31,  8, 20, 40, 36, 10, 52, 47,
       76,  3, 50, 76, 61,  8, 72,  3, 54, 78, 22, 77, 48, 69, 33, 48,  7,
       16, 28,  5, 57,  8,  2, 28, 33, 63,  6, 49,  5, 46, 60, 51, 13, 55,
       80, 36, 76, 76, 61, 74, 33, 33, 50, 13, 54, 35, 33,  9, 32, 31, 52,
        4, 34,  6, 36, 10, 20, 82, 48, 78, 81, 52, 75, 60,  4,  2, 48, 51,
       34, 63, 29, 48, 51,  5, 90, 35, 78, 69, 81, 56, 60, 33, 84, 79, 70,
       26, 87,  4, 49, 48,  4,  4, 22, 68, 50, 40])}, {'ts_index': 164, 'loc': 36, 'gap': 0.08962933719974303, 'distances': array([0.19156048, 0.25179296, 0.1421125 , 0.28501155, 0.29297795,
       0.14302544, 0.22275703, 0.36001697, 0.41270668, 0.23127499,
       0.25809602, 0.20821731, 0.30001677, 0.12364142, 0.41536779,
       0.42161617, 0.406643  , 0.36239826, 0.19264677, 0.40326241,
       0.24028774, 0.41579594, 0.35169561, 0.42131972, 0.36636618,
       0.19848525, 0.23593723, 0.16231703, 0.33778985, 0.27205056,
       0.26907838, 0.40658014, 0.3701248 , 0.36289418, 0.1380086 ,
       0.193781  , 0.23518897, 0.38974483, 0.13412999, 0.18138496,
       0.322898  , 0.37465848, 0.3229801 , 0.18128521, 0.14063103,
       0.33489124, 0.35898574, 0.37747151, 0.11598653, 0.39252586,
       0.14330265, 0.22308213, 0.40683556, 0.14513212, 0.13454878,
       0.33728844, 0.32371571, 0.15272854, 0.3820727 , 0.272141  ,
       0.4340355 , 0.30546248, 0.2731025 , 0.1516212 , 0.28304551,
       0.24257598, 0.39968972, 0.39130458, 0.42460669, 0.34921627,
       0.35401735, 0.14162233, 0.16096967, 0.24882681, 0.18246419,
       0.10605742, 0.33981714, 0.30515538, 0.33146153, 0.3595567 ,
       0.326649  , 0.20378125, 0.2048921 , 0.22445573, 0.4042924 ,
       0.19133829, 0.35977577, 0.3637617 , 0.40323949, 0.34304681,
       0.33433898, 0.16319206, 0.35488057, 0.19105278, 0.08466658,
       0.36381649, 0.05769627, 0.        , 0.24724075, 0.4080082 ,
       0.3430282 , 0.1999851 , 0.4263136 , 0.23925063, 0.34500353,
       0.37568815, 0.3594199 , 0.39363125, 0.10566008, 0.31927838,
       0.36145648, 0.37927271, 0.40394083, 0.37499582, 0.17772473,
       0.40040102, 0.38458559, 0.07837676, 0.42010731, 0.40879451,
       0.31471149]), 'delta_distances': array([0., 0., 0., 0., 0., 0., 0., 0., 0., 0., 0., 0., 0., 0., 0., 0., 0.,
       0., 0., 0., 0., 0., 0., 0., 0., 0., 0., 0., 0., 0., 0., 0., 0., 0.,
       0., 0., 0., 0., 0., 0., 0., 0., 0., 0., 0., 0., 0., 0., 0., 0., 0.,
       0., 0., 0., 0., 0., 0., 0., 0., 0., 0., 0., 0., 0., 0., 0., 0., 0.,
       0., 0., 0., 0., 0., 0., 0., 0., 0., 0., 0., 0., 0., 0., 0., 0., 0.,
       0., 0., 0., 0., 0., 0., 0., 0., 0., 0., 0., 0., 0., 0., 0., 0., 0.,
       0., 0., 0., 0., 0., 0., 0., 0., 0., 0., 0., 0., 0., 0., 0., 0., 0.,
       0., 0.]), 'locations': array([31, 32, 24, 83, 75, 69, 64, 55, 71, 82, 36,  8, 83, 27, 49, 35, 58,
       56,  7, 79, 48,  8, 31, 76, 59, 47, 37, 49, 20, 10, 37, 17, 26, 41,
        4, 51, 70, 16, 36, 64, 80, 79, 68, 75,  2, 12, 76, 58, 65, 27, 59,
        4, 82, 36, 31, 21, 49, 22, 15, 86, 61, 41, 47,  5,  7, 75,  2, 90,
       90, 62, 71, 29, 28, 32,  9, 75, 44, 35, 78, 48, 76, 53, 47, 63, 49,
       61, 10, 57,  2, 67, 90,  2, 50, 83,  2, 73, 15, 36, 55, 84, 71, 79,
       84, 56, 84, 89,  7, 42,  2,  4, 51, 82, 57, 77, 47,  3,  9,  5,  5,
        7,  3])}, {'ts_index': 184, 'loc': 70, 'gap': 0.09163226755553733, 'distances': array([0.25131471, 0.42774906, 0.22212496, 0.15134876, 0.35853695,
       0.23864328, 0.36763073, 0.27178179, 0.18324621, 0.23511707,
       0.19088837, 0.2612387 , 0.36674487, 0.22597849, 0.10459797,
       0.40372579, 0.28370501, 0.15725081, 0.13005627, 0.15583752,
       0.19346656, 0.30058669, 0.24089782, 0.17298496, 0.14091123,
       0.24786081, 0.3608596 , 0.20884962, 0.29832309, 0.20652119,
       0.36376569, 0.30585182, 0.30531681, 0.42146885, 0.11230032,
       0.28981863, 0.22007087, 0.1951495 , 0.20394436, 0.22156707,
       0.18740064, 0.25636699, 0.39980056, 0.24692112, 0.15120567,
       0.29931018, 0.39093339, 0.21665221, 0.18554624, 0.29746436,
       0.24212149, 0.24683124, 0.17667274, 0.22434474, 0.40607618,
       0.12748985, 0.37909072, 0.40134103, 0.16025744, 0.18704257,
       0.15861058, 0.40827054, 0.13298597, 0.        , 0.36930908,
       0.25960054, 0.29262079, 0.22188296, 0.27958938, 0.38482477,
       0.23843266, 0.25417059]), 'delta_distances': array([0., 0., 0., 0., 0., 0., 0., 0., 0., 0., 0., 0., 0., 0., 0., 0., 0.,
       0., 0., 0., 0., 0., 0., 0., 0., 0., 0., 0., 0., 0., 0., 0., 0., 0.,
       0., 0., 0., 0., 0., 0., 0., 0., 0., 0., 0., 0., 0., 0., 0., 0., 0.,
       0., 0., 0., 0., 0., 0., 0., 0., 0., 0., 0., 0., 0., 0., 0., 0., 0.,
       0., 0., 0., 0.]), 'locations': array([76, 60, 40, 13, 34, 28, 57,  1, 28, 80, 55, 30, 45, 61, 55, 36, 36,
       17, 32, 75, 14, 52, 47, 44, 77, 33, 40, 38, 53, 16, 40, 69,  2, 70,
       90,  6, 66, 47, 36, 83, 74, 65, 63, 48, 63, 69,  7,  4,  7, 48, 24,
       31, 28,  7, 79, 84, 29, 51, 35, 69, 33, 34, 79, 70, 65,  3, 52, 14,
       40, 68, 50, 10])}, {'ts_index': 77, 'loc': 7, 'gap': 0.1303557344954223, 'distances': array([0.40580946, 0.38735865, 0.40654649, 0.41039305, 0.40084221,
       0.        , 0.19173765, 0.42882207, 0.41973819, 0.3092177 ,
       0.17557814, 0.37511017, 0.33486097, 0.16143435, 0.29586883,
       0.41556145]), 'delta_distances': array([0., 0., 0., 0., 0., 0., 0., 0., 0., 0., 0., 0., 0., 0., 0., 0.]), 'locations': array([ 3, 79, 34, 53, 63,  7, 54,  7, 21, 35, 36,  2, 76, 76, 80,  4])}, {'ts_index': 167, 'loc': 48, 'gap': 0.12423027513542317, 'distances': array([0.33942653, 0.19418472, 0.39789575, 0.21728242, 0.41060167,
       0.357524  , 0.1093556 , 0.40285909, 0.        , 0.40112227,
       0.41228603, 0.30087689]), 'delta_distances': array([0., 0., 0., 0., 0., 0., 0., 0., 0., 0., 0., 0.]), 'locations': array([34, 36,  3, 83, 36, 43, 72, 36, 48, 33, 65, 85])}, {'ts_index': 197, 'loc': 68, 'gap': 0.1352794125306906, 'distances': array([0.36364022, 0.22850984, 0.43654256, 0.43989218, 0.39896022,
       0.18369655, 0.37457354, 0.        ]), 'delta_distances': array([0., 0., 0., 0., 0., 0., 0., 0.]), 'locations': array([36, 75, 85, 55, 63, 51, 26, 68])}, {'ts_index': 133, 'loc': 86, 'gap': 0.18637086299490926, 'distances': array([0.30119347, 0.05676194, 0.26382181, 0.        , 0.23997152]), 'delta_distances': array([0., 0., 0., 0., 0.]), 'locations': array([54, 46, 44, 86, 75])}], 'clusters': array([3, 3, 3, 4, 1, 0, 1, 3, 1, 3, 4, 4, 3, 1, 3, 3, 1, 6, 1, 3, 2, 1,
       4, 7, 4, 4, 1, 1, 3, 4, 1, 3, 4, 4, 1, 6, 4, 2, 3, 2, 2, 1, 3, 1,
       2, 3, 4, 8, 4, 1, 4, 4, 4, 1, 2, 2, 3, 3, 3, 2, 4, 1, 3, 3, 2, 4,
       1, 4, 1, 4, 3, 2, 2, 3, 2, 4, 4, 5, 3, 1, 1, 1, 4, 2, 3, 3, 4, 1,
       1, 3, 3, 4, 5, 1, 3, 2, 1, 4, 1, 4, 1, 2, 0, 4, 4, 1, 3, 4, 3, 4,
       4, 4, 1, 1, 2, 1, 4, 4, 3, 1, 3, 3, 2, 1, 3, 1, 3, 6, 2, 4, 4, 4,
       1, 8, 1, 1, 3, 1, 3, 1, 3, 4, 3, 4, 1, 1, 4, 4, 4, 4, 1, 1, 1, 3,
       2, 2, 1, 4, 3, 3, 5, 2, 3, 1, 3, 3, 4, 6, 3, 7, 2, 3, 4, 2, 4, 4,
       1, 2, 5, 2, 3, 1, 1, 4, 4, 1, 0, 4, 4, 2, 1, 3, 1, 4, 4, 3, 1, 7,
       4, 4]), 'time': 45297.77108120918}}, 'UED': {5: {'RI': 0.5120100502512562, 'num_clusters': 2, 'uShapelets': [{'ts_index': 46, 'loc': 0, 'gap': 1.1803168817083698, 'distances': array([1.5361018, 5.3737198, 1.817794 , 5.9912312, 3.3320338, 1.3522414,
       6.1658598, 4.9012054, 5.3435832, 2.3578232, 4.9831286, 1.7310414,
       6.6111472, 4.0413962, 5.8225406, 4.3440408, 5.0766986, 4.9833924,
       5.668359 , 2.393476 , 5.4214224, 2.1933518, 3.6547374, 2.1855456,
       2.1361554, 2.255023 , 4.8020816, 3.8244484, 2.3643962, 2.8568562,
       6.6735258, 1.6363088, 1.459949 , 1.593835 , 2.5550552, 1.9864   ,
       4.4801832, 7.585542 , 6.9512258, 3.1120076, 2.2300316, 6.0071574,
       4.8549974, 5.7765412, 2.7972204, 3.1431384, 0.       , 5.7305064,
       4.6671978, 2.8243978, 2.4406438, 5.8871004, 2.5044548, 3.471799 ,
       3.1448548, 1.2337702, 1.73677  , 3.301284 , 5.7507532, 2.1041636,
       4.8151966, 0.8205592, 3.8413944, 3.1761104, 2.7974628, 3.4272762,
       4.4556726, 5.9633884, 2.477585 , 7.1628614, 0.8940554, 2.143362 ,
       4.0535272, 3.5310482, 5.343507 , 2.6578808, 6.6054324, 3.5270102,
       5.7043608, 1.6323446, 1.8669196, 4.0170114, 2.6874734, 3.2389932,
       1.4066226, 3.8696022, 1.8345108, 4.9788014, 4.7443708, 5.0958276,
       3.2755512, 2.5337626, 0.9978696, 0.7631114, 3.910127 , 4.558775 ,
       4.2161278, 0.46243  , 4.1885172, 5.447867 , 4.8282672, 3.1639374,
       3.951619 , 3.3628202, 2.3624592, 3.1543922, 3.5240896, 2.4445612,
       4.7971014, 4.5672014, 3.5305462, 3.9056648, 2.5388524, 3.1538032,
       0.8307284, 3.712914 , 1.8670478, 4.838366 , 2.6876698, 3.6262918,
       2.6349796, 5.5812284, 1.3637194, 4.6591726, 2.6459506, 4.0190628,
       4.4894516, 1.9835162, 7.460577 , 2.5224094, 5.0746422, 1.9632774,
       3.958775 , 1.2495156, 2.2842444, 5.5772972, 1.646241 , 3.2965774,
       5.656001 , 1.8673716, 3.428112 , 4.0313046, 6.0527884, 3.0046152,
       4.834754 , 2.1387188, 4.7489048, 1.8860916, 3.4878198, 4.615726 ,
       4.905044 , 3.0394938, 5.0422566, 3.957927 , 2.452079 , 1.5004412,
       4.4356606, 2.379979 , 2.8006214, 2.5223618, 2.1142526, 2.9780342,
       1.4934844, 2.586518 , 5.49755  , 4.8661574, 4.0267434, 3.7432722,
       4.2312284, 1.7944172, 3.261669 , 5.5554596, 5.3301468, 6.8911498,
       6.4730102, 3.814375 , 0.9538964, 2.368395 , 1.967804 , 4.5484724,
       6.971471 , 2.8368092, 1.604794 , 4.9985518, 4.0124702, 2.0464208,
       3.2640648, 1.298783 , 2.6621204, 6.9199514, 3.8770868, 7.5848364,
       2.3528118, 4.9073276, 3.8452022, 3.8979786, 5.8255056, 3.6187936,
       3.5617832, 1.8844168]), 'delta_distances': array([ 3.6938592,  9.934408 ,  4.2943028,  8.111252 ,  5.7301492,
        4.0574884,  8.7834212,  7.7256016,  8.8201516,  5.2475584,
        8.5853804,  3.7248124,  7.4083904,  8.5003124,  9.4882516,
        7.8310488,  6.8906148,  7.3518948,  9.0911944,  4.9469568,
        8.5247184,  5.054604 ,  6.7645688,  5.538104 ,  5.2340704,
        4.4799568,  8.1549928,  6.5388076,  4.0052116,  8.593914 ,
        7.65826  ,  4.0914636,  4.2250024,  4.3033252,  5.3781928,
        4.6685448,  8.035208 ,  9.7826244,  8.5720592,  5.498974 ,
        4.7636144,  7.2028576,  8.4996036,  7.5463168,  6.1316632,
        8.202748 ,  0.       ,  9.5546448,  9.0377144,  5.322702 ,
        5.3231344,  8.9902652,  6.4904408,  8.1459752,  6.431044 ,
        3.7231652,  4.7404084,  6.3465832,  7.5292608,  4.7125756,
        8.1071412,  3.4619852,  6.6101412,  6.3969884,  6.1564744,
        7.3836588,  7.4959268,  7.2000412,  5.5057528,  9.380468 ,
        2.531308 ,  5.1574524,  5.2962424,  7.4063708,  9.3234544,
        5.702946 , 10.0903952,  7.1411244,  8.0472576,  4.0769608,
        5.1283652,  6.55249  ,  5.4473788,  6.9170444,  4.2867228,
        6.4889216,  2.2045596,  8.8554436,  7.096536 ,  8.7941808,
        7.0527624,  4.0019284,  4.4776972,  2.7279412,  8.2683072,
        7.975372 ,  7.1178324,  1.9344356,  7.6330296,  7.202524 ,
        7.976986 ,  5.4755244,  7.8088884,  6.959758 ,  4.6892676,
        5.7136932,  6.1827544,  5.1092768,  8.4151944,  6.5522588,
        5.9008112,  6.1150656,  6.1935504,  6.6162896,  3.2595244,
        6.841336 ,  6.137396 ,  9.4171104,  6.5447212,  5.760932 ,
        5.2466688,  8.7171748,  2.8347888,  7.7445804,  6.2237128,
        6.9540624,  6.5251716,  5.2006028, 10.947946 ,  5.3260688,
       10.0292216,  6.321256 ,  6.4864236,  2.923138 ,  4.8261388,
        7.8670228,  4.398142 ,  6.2955796,  7.7330328,  4.4571484,
        7.1558652,  9.4521056, 10.2067304,  5.9533996,  8.572148 ,
        3.548724 ,  7.3952236,  5.3431536,  3.5703072,  7.903628 ,
        6.9982804,  5.4916   ,  8.6405672,  6.8137572,  5.688258 ,
        4.8691944,  7.4297684,  4.8865724,  6.3200332,  7.0280592,
        4.1146956,  5.649092 ,  5.0445512,  5.7411712,  9.047706 ,
        8.3535952,  5.751334 ,  7.310986 ,  7.8966924,  4.63415  ,
        7.4779688,  9.6067744,  7.4045636,  9.535776 ,  8.9816072,
        6.6260344,  3.7237236,  5.606316 ,  5.035584 ,  7.0572988,
        9.6738916,  4.6692632,  4.6989108, 10.0962656,  7.4782616,
        4.8854092,  7.2309376,  3.9617524,  4.951924 , 11.127628 ,
        7.6444884,  8.2904612,  5.7410552,  6.8156792,  8.3210308,
        7.1443864,  9.4132772,  7.4111784,  7.252002 ,  4.6486208]), 'locations': array([ 0,  0,  1,  0, 89,  0, 86,  0,  4,  3, 36, 87, 68,  0, 90,  1,  0,
       54, 34, 87, 21,  0,  0,  0, 88, 88,  2,  0,  0,  0, 51,  0,  2,  0,
       89,  1,  0,  0, 21,  0,  0, 70, 34, 50,  1,  0,  0, 88,  0, 88,  0,
       90,  3,  3, 87,  0,  0,  2, 85,  2, 89,  0,  0, 87,  3,  0,  0, 73,
        0, 41,  0,  0,  0,  0,  0,  0,  0,  1, 45,  0,  0,  1, 88,  0,  0,
        0,  1,  4,  0,  0,  4, 89,  2,  0,  0,  0,  0,  2,  0,  0,  0, 88,
        3, 87,  0,  1,  2,  1,  0,  4,  1,  2, 89,  0,  2,  0,  0,  0,  0,
        2, 87, 89,  0, 31,  0, 89,  4, 88, 41,  0,  0,  0,  0,  0,  0,  0,
       88,  0, 89,  0,  2,  1, 89,  3, 40,  0, 33, 88,  0,  0,  0,  0,  0,
       88,  0,  0,  0,  4,  0,  0,  0,  0,  0,  0, 43, 89,  1,  0, 39,  0,
        1, 43, 80,  1, 40,  0,  0,  0,  0,  1,  0, 87,  0,  1,  0,  1,  0,
        0,  0,  4,  3, 71,  1, 72,  0,  1, 36,  1,  0,  0])}], 'clusters': array([1, 0, 1, 0, 1, 1, 0, 1, 0, 1, 1, 1, 0, 1, 0, 1, 1, 1, 0, 1, 0, 1,
       1, 1, 1, 1, 1, 1, 1, 1, 0, 1, 1, 1, 1, 1, 1, 0, 0, 1, 1, 0, 1, 0,
       1, 1, 1, 0, 1, 1, 1, 0, 1, 1, 1, 1, 1, 1, 0, 1, 1, 1, 1, 1, 1, 1,
       1, 0, 1, 0, 1, 1, 1, 1, 1, 1, 0, 1, 0, 1, 1, 1, 1, 1, 1, 1, 1, 1,
       1, 1, 1, 1, 1, 1, 1, 1, 1, 1, 1, 0, 1, 1, 1, 1, 1, 1, 1, 1, 1, 1,
       1, 1, 1, 1, 1, 1, 1, 1, 1, 1, 1, 0, 1, 1, 1, 1, 1, 1, 0, 1, 1, 1,
       1, 1, 1, 0, 1, 1, 0, 1, 1, 1, 0, 1, 1, 1, 1, 1, 1, 1, 1, 1, 1, 1,
       1, 1, 1, 1, 1, 1, 1, 1, 1, 1, 0, 1, 1, 1, 1, 1, 1, 0, 1, 0, 0, 1,
       1, 1, 1, 1, 0, 1, 1, 1, 1, 1, 1, 1, 1, 0, 1, 0, 1, 1, 1, 1, 0, 1,
       1, 1]), 'time': 4016.012699365616}, 24: {'RI': 0.5734673366834171, 'num_clusters': 3, 'uShapelets': [{'ts_index': 148, 'loc': 1, 'gap': 0.7363977622637758, 'distances': array([1.33616108, 2.13077358, 1.97250908, 1.79246013, 3.37091358,
       1.83476467, 2.36465137, 1.81157596, 1.49318754, 2.06619925,
       2.08130367, 3.71940263, 3.33313237, 2.50106158, 2.372631  ,
       2.07455842, 1.31421429, 2.5804505 , 3.52625292, 2.67400804,
       3.12397413, 1.39071154, 2.35848717, 1.29345804, 3.01544754,
       3.28935617, 2.25091129, 2.05202833, 2.09932462, 1.55610558,
       2.74381521, 2.170669  , 1.89497179, 1.13883967, 3.56123958,
       1.60593258, 2.48635087, 1.72977354, 3.42985221, 1.68455162,
       1.379727  , 3.78595771, 2.46064892, 1.65637179, 1.52865592,
       1.77316908, 1.895771  , 2.67920346, 1.66370279, 2.75165896,
       1.46828904, 3.42350638, 1.82560917, 2.31097208, 3.94889158,
       1.61765971, 1.47261679, 1.83615521, 3.48195367, 2.25406717,
       2.91681746, 2.71442025, 2.30940354, 1.55964008, 1.684194  ,
       1.58155646, 1.77873704, 2.97099446, 1.02453513, 2.212055  ,
       0.822987  , 1.44831129, 1.87451588, 1.24439708, 2.17171429,
       1.62275338, 1.179696  , 2.11861529, 2.03849787, 1.89356529,
       1.15447275, 3.213397  , 3.74734542, 1.77844004, 1.76970571,
       2.28934596, 1.65675304, 1.95663117, 1.86631412, 2.11837758,
       1.68458842, 3.22458492, 1.94610146, 1.33205242, 2.43454625,
       1.30930925, 1.054932  , 1.51760483, 2.99810142, 1.48431704,
       2.1828575 , 3.11379929, 1.97649854, 2.25682196, 1.72041729,
       1.78087138, 1.78140646, 1.68020804, 2.32850525, 1.29113913,
       1.87504271, 2.04042342, 3.52676188, 1.2666145 , 1.66469975,
       1.46896938, 1.37784329, 1.18157425, 2.12046483, 2.10505042,
       3.34351008, 2.35013088, 1.88995929, 2.06856446, 1.45464771,
       3.27997221, 1.37112067, 3.10472288, 3.08936175, 1.86477354,
       2.10529121, 1.17385721, 1.43426871, 1.6275735 , 1.80790508,
       3.29237996, 2.90047117, 0.9899025 , 2.77225838, 1.47894992,
       1.97819904, 2.26112342, 2.37555604, 1.40332108, 2.91831867,
       1.32607992, 0.901164  , 1.79570958, 0.        , 1.82964158,
       1.10333975, 1.69647613, 1.58100654, 4.50508813, 1.57800071,
       1.05545433, 2.56089525, 1.455239  , 0.83114446, 1.70342079,
       1.33283113, 1.24141867, 1.76218529, 1.85761213, 3.37204892,
       3.319049  , 2.044366  , 1.4595575 , 1.3752495 , 1.22607058,
       2.08575708, 2.1446485 , 2.39404983, 2.56611967, 1.78595963,
       2.02153621, 1.18671413, 1.82277267, 1.32070658, 2.20165562,
       1.67874904, 2.83091917, 1.0991495 , 2.02311596, 1.82724458,
       1.68912633, 3.24779446, 1.54602188, 1.55862092, 2.07224675,
       1.82206704, 2.45551063, 1.41201908, 3.25263767, 2.55197246,
       1.59984479, 2.91187363, 2.11113425, 1.87238892, 2.39603188]), 'delta_distances': array([1.89259808, 2.57408442, 1.9281795 , 2.04507483, 2.49867767,
       2.00025633, 2.82766658, 2.45434117, 1.93284133, 2.830401  ,
       2.26368642, 2.14732825, 2.14669417, 2.59561758, 2.606502  ,
       2.20236667, 1.60365575, 2.51350517, 2.87970242, 2.83995467,
       2.8386265 , 1.66293367, 2.29026917, 1.53329883, 2.41503417,
       2.04628292, 2.40477692, 2.42331008, 2.33488183, 2.78166667,
       3.40354408, 2.05247508, 2.06668383, 1.69347933, 2.18034383,
       1.67470475, 2.79927225, 1.94040583, 2.47608242, 2.27300367,
       1.57350358, 2.4635455 , 2.41989158, 1.87645483, 1.92467058,
       2.73651158, 1.99065917, 2.75909633, 1.73221375, 2.31169375,
       2.22121108, 2.34181542, 2.43717592, 2.73492725, 2.16766092,
       1.96870942, 2.34002675, 2.17933767, 1.99001183, 2.19322542,
       2.40814625, 3.2520055 , 2.58221842, 1.88117392, 1.81676375,
       2.17506192, 2.0120665 , 2.25148458, 1.61688225, 2.61831167,
       1.37328733, 2.22548758, 2.48357983, 2.10236358, 2.43249283,
       2.25530583, 1.37590308, 2.37831008, 2.00194267, 2.21881025,
       1.998683  , 2.92320467, 2.14322208, 2.41600333, 2.11509917,
       2.11881733, 1.85235367, 2.01216925, 1.80507075, 2.53105325,
       1.76314625, 2.89610475, 2.36235092, 1.81350942, 2.80563092,
       1.57615933, 1.63190983, 1.83610625, 2.25316675, 1.81951725,
       2.30228358, 1.63123125, 2.07914133, 2.01598733, 1.75701475,
       2.0883555 , 2.03316142, 1.69433258, 2.11786383, 1.52997933,
       1.53687158, 1.74847225, 1.92069633, 1.83211658, 1.96983042,
       1.98086975, 1.77501025, 1.37669683, 2.24673692, 1.63012608,
       2.05331142, 2.43681083, 1.93968642, 2.21744158, 1.82946017,
       2.89904467, 1.46563142, 3.295391  , 1.99362708, 1.97339233,
       2.21915958, 1.65373933, 1.349083  , 1.55171983, 1.79319542,
       2.04289642, 2.07347442, 1.4527625 , 2.58229775, 1.6457395 ,
       2.13785292, 2.32656092, 2.57358858, 1.96168508, 3.06199983,
       1.36045975, 1.57557125, 2.28310433, 0.        , 1.75272125,
       1.34028783, 1.70096792, 2.38142783, 2.21467642, 1.83807158,
       1.60257167, 2.588675  , 1.62126392, 1.41839442, 2.29019942,
       1.4329805 , 1.47838267, 2.26962142, 2.00970125, 2.71968417,
       2.081434  , 2.05242008, 1.498293  , 1.62250117, 1.56543825,
       2.50581992, 2.29195575, 2.4732475 , 2.56245783, 2.11542158,
       2.09637517, 1.50836342, 2.15478317, 1.55591317, 1.99162808,
       1.68452492, 2.00684608, 1.77043242, 2.23795442, 2.23345058,
       2.37034358, 2.23219633, 1.76967975, 1.62454433, 2.77772225,
       1.98104792, 2.55420117, 1.61647967, 2.97803625, 2.47764875,
       1.85802858, 2.53684925, 2.24897242, 1.88293783, 2.13452275]), 'locations': array([ 2,  1,  2,  1, 10,  2,  0,  1,  1,  6,  0, 63, 69,  4,  7,  2,  1,
        1, 35,  0, 24,  2,  1,  1, 34, 65,  3,  1,  1,  1,  1,  1,  3,  2,
       56,  3,  2,  1, 33,  4,  2, 43,  1,  0,  3,  3,  1,  1,  2, 38,  2,
       47,  4,  5, 63,  4,  2,  4, 62,  5, 25,  2,  2,  1,  4,  1,  2,  0,
        2,  2,  2,  2,  1,  1,  3,  3,  1,  2,  2,  2,  3,  3, 61,  3,  3,
        1,  2,  5,  2,  2,  0, 38,  4,  2,  2,  2,  1,  7, 42,  0,  2, 59,
        5,  3,  1,  2,  4,  2,  2,  1,  4,  4, 61,  2,  8,  1,  2,  2,  2,
        5, 63,  2,  2,  0,  2,  0,  1,  2,  0,  2,  2,  1,  0,  2,  1, 54,
       45,  1,  0,  2,  5,  4,  2,  4,  0,  3,  0,  0,  1,  1,  1,  2,  0,
       55,  1,  2,  0,  5,  1,  2,  3,  1,  3,  1,  2, 47,  3,  1,  1,  2,
        2,  1,  4,  2,  1,  2,  2,  2,  2,  2,  1, 44,  2,  0,  3,  3, 48,
        2,  1,  0,  6,  2,  3,  0,  2,  4,  0,  2,  1,  2])}, {'ts_index': 98, 'loc': 5, 'gap': 1.1751694686043463, 'distances': array([1.65819279, 0.75400446, 1.20506492, 0.76495333, 3.51824404,
       1.00249788, 0.71875042, 1.24810567, 3.57736367, 0.69023492,
       2.41090308, 0.75825329, 0.71732971, 3.52071233, 0.74328654,
       1.28049308, 0.92377642, 3.40540625, 0.        , 1.00337529,
       1.07956812, 0.70044875, 0.99528892, 0.96728817, 1.09477942,
       0.58117692, 0.62345542, 0.90503404, 0.92682342, 0.86260562,
       0.86843225, 1.11412729, 0.74020667, 0.90626508]), 'delta_distances': array([1.91737108, 1.366698  , 1.6738665 , 1.55013142, 3.56785825,
       1.36228042, 1.27285333, 1.96719358, 3.22566025, 1.40297717,
       2.78348267, 1.43731925, 1.26035925, 3.1045195 , 1.33351683,
       1.43078808, 1.33181658, 2.64185592, 0.        , 1.46425583,
       1.46936533, 1.21580733, 1.59344   , 1.62585942, 1.32341342,
       1.23632883, 1.38331342, 1.578822  , 1.29248258, 1.20065292,
       1.70949783, 1.73541358, 1.26948425, 1.37414125]), 'locations': array([25,  3,  9,  6, 40,  4,  5,  9,  3, 11,  4,  2,  8, 33, 13, 16,  7,
        3,  5,  8,  8,  8,  7, 28, 10,  6,  6,  8, 11, 13,  4,  6, 20,  8])}, {'ts_index': 91, 'loc': 3, 'gap': 0.42040091233654775, 'distances': array([1.33265063, 1.32057825, 0.67933925, 0.78614371, 1.24054646,
       0.        ]), 'delta_distances': array([1.41368108, 1.82400092, 1.30042075, 1.3062805 , 2.11759667,
       0.        ]), 'locations': array([34,  3,  5,  6,  3,  3])}], 'clusters': array([1, 1, 1, 1, 0, 1, 1, 1, 1, 1, 1, 2, 2, 1, 1, 1, 1, 1, 2, 1, 0, 1,
       1, 1, 2, 2, 1, 1, 1, 1, 1, 1, 1, 1, 2, 1, 1, 1, 3, 1, 1, 2, 1, 1,
       1, 1, 1, 1, 1, 1, 1, 3, 1, 1, 2, 1, 1, 1, 2, 1, 0, 1, 1, 1, 1, 1,
       1, 2, 1, 1, 1, 1, 1, 1, 1, 1, 1, 1, 1, 1, 1, 2, 2, 1, 1, 1, 1, 1,
       1, 1, 1, 3, 1, 1, 1, 1, 1, 1, 2, 1, 1, 2, 1, 1, 1, 1, 1, 1, 1, 1,
       1, 1, 2, 1, 1, 1, 1, 1, 1, 1, 2, 1, 1, 1, 1, 2, 1, 2, 2, 1, 1, 1,
       1, 1, 1, 2, 2, 1, 1, 1, 1, 1, 1, 1, 2, 1, 1, 1, 1, 1, 1, 1, 1, 2,
       1, 1, 1, 1, 1, 1, 1, 1, 1, 1, 2, 2, 1, 1, 1, 1, 1, 1, 1, 1, 1, 1,
       1, 1, 1, 1, 1, 1, 1, 1, 1, 1, 2, 1, 1, 1, 1, 1, 1, 2, 1, 1, 2, 1,
       1, 1]), 'time': 2562.490576982498}}, 'ED': {24: {'RI': 0.5664824120603015, 'num_clusters': 3, 'uShapelets': [{'ts_index': 146, 'loc': 1, 'gap': 0.04479284583557144, 'distances': array([0.15417331, 0.23711355, 0.2095126 , 0.20446128, 0.28406728,
       0.20497409, 0.25580523, 0.2306558 , 0.2008537 , 0.2331864 ,
       0.21692985, 0.34835206, 0.32874681, 0.29012133, 0.26399918,
       0.20218723, 0.15566411, 0.21881353, 0.33516916, 0.24362324,
       0.30352968, 0.12701792, 0.21720806, 0.15586228, 0.2900963 ,
       0.31067359, 0.25017159, 0.21255798, 0.2387774 , 0.17736558,
       0.25845321, 0.225239  , 0.21237743, 0.18096781, 0.33680446,
       0.17590994, 0.26935654, 0.23771279, 0.32067265, 0.20617775,
       0.17461341, 0.36182057, 0.24438996, 0.16387431, 0.22839793,
       0.19688065, 0.22001845, 0.23183174, 0.19314311, 0.24688328,
       0.20619077, 0.31618485, 0.21596473, 0.25611384, 0.35169768,
       0.1877729 , 0.18113815, 0.22128756, 0.34919952, 0.24829891,
       0.29193986, 0.27038274, 0.2258774 , 0.20792602, 0.2219042 ,
       0.208941  , 0.19028022, 0.26498883, 0.1839523 , 0.24008007,
       0.15549478, 0.20912014, 0.22375202, 0.20714264, 0.22252858,
       0.19128366, 0.16731807, 0.2042097 , 0.26038197, 0.20603274,
       0.16217839, 0.30274214, 0.34508599, 0.20557144, 0.21770736,
       0.22637878, 0.18937334, 0.2405154 , 0.19451864, 0.21231012,
       0.18549951, 0.32645157, 0.24023672, 0.21990678, 0.25339599,
       0.17858538, 0.12995847, 0.20973944, 0.29629592, 0.19793204,
       0.21212042, 0.29075025, 0.20728958, 0.24454616, 0.15258559,
       0.22393605, 0.19588175, 0.19187675, 0.24259711, 0.18901349,
       0.2275684 , 0.22561105, 0.32193041, 0.14202818, 0.22666905,
       0.20286672, 0.14702342, 0.17854982, 0.21263375, 0.21927088,
       0.33571283, 0.24023697, 0.22015938, 0.1901873 , 0.14013206,
       0.25575882, 0.15056873, 0.27955782, 0.26854268, 0.21869698,
       0.23271363, 0.1498037 , 0.12386062, 0.16563659, 0.21135219,
       0.30666225, 0.28081159, 0.16150085, 0.27113039, 0.16120804,
       0.19878644, 0.24129861, 0.20592512, 0.18397839, 0.26475095,
       0.15458916, 0.        , 0.24178178, 0.16152244, 0.18313433,
       0.15450766, 0.17891324, 0.1936397 , 0.35159714, 0.13724396,
       0.13488612, 0.24315221, 0.18596836, 0.11872343, 0.20644523,
       0.18224126, 0.150452  , 0.22069183, 0.19442537, 0.27400384,
       0.32158651, 0.23763478, 0.14962729, 0.16091058, 0.13090848,
       0.21777002, 0.23881859, 0.23727716, 0.26150793, 0.20794298,
       0.21443298, 0.12256792, 0.19686106, 0.17496304, 0.22349908,
       0.16706913, 0.2991393 , 0.15293272, 0.21600025, 0.21465393,
       0.1961424 , 0.31400153, 0.17112243, 0.17842806, 0.19352532,
       0.24117159, 0.24416866, 0.15794196, 0.31786004, 0.27008832,
       0.19620659, 0.2413213 , 0.16763183, 0.18996464, 0.2590911 ]), 'delta_distances': array([0., 0., 0., 0., 0., 0., 0., 0., 0., 0., 0., 0., 0., 0., 0., 0., 0.,
       0., 0., 0., 0., 0., 0., 0., 0., 0., 0., 0., 0., 0., 0., 0., 0., 0.,
       0., 0., 0., 0., 0., 0., 0., 0., 0., 0., 0., 0., 0., 0., 0., 0., 0.,
       0., 0., 0., 0., 0., 0., 0., 0., 0., 0., 0., 0., 0., 0., 0., 0., 0.,
       0., 0., 0., 0., 0., 0., 0., 0., 0., 0., 0., 0., 0., 0., 0., 0., 0.,
       0., 0., 0., 0., 0., 0., 0., 0., 0., 0., 0., 0., 0., 0., 0., 0., 0.,
       0., 0., 0., 0., 0., 0., 0., 0., 0., 0., 0., 0., 0., 0., 0., 0., 0.,
       0., 0., 0., 0., 0., 0., 0., 0., 0., 0., 0., 0., 0., 0., 0., 0., 0.,
       0., 0., 0., 0., 0., 0., 0., 0., 0., 0., 0., 0., 0., 0., 0., 0., 0.,
       0., 0., 0., 0., 0., 0., 0., 0., 0., 0., 0., 0., 0., 0., 0., 0., 0.,
       0., 0., 0., 0., 0., 0., 0., 0., 0., 0., 0., 0., 0., 0., 0., 0., 0.,
       0., 0., 0., 0., 0., 0., 0., 0., 0., 0., 0., 0., 0.]), 'locations': array([ 2,  2,  3,  1, 10,  2,  0,  1,  2,  7,  1, 63, 69,  4,  9,  3,  1,
        1, 67,  0, 24,  2,  2,  2, 41, 65,  4,  1,  2,  2,  2,  2,  4,  2,
       57,  3,  2,  0, 32,  4,  2, 43,  0,  1,  3,  2,  2,  0,  2,  1,  2,
        0,  7,  6, 63,  3,  2,  4, 62,  4, 24,  2,  2,  1,  5,  2,  2,  1,
        3,  0,  2,  2,  1,  1,  1,  4,  1,  3,  1,  2,  4,  3, 61,  3,  4,
        2,  3,  6,  2,  2,  1, 39,  4,  3,  2,  1,  1,  7, 43,  1,  2,  0,
        6,  3,  2,  3,  4,  3,  2,  1,  4,  4, 61,  2,  8,  2,  2,  2,  2,
        5, 62,  2,  2,  0,  2,  0,  1,  0,  0,  2,  1,  2,  1,  2,  2, 55,
        2,  1,  0,  2,  5,  3,  1,  5,  0,  2,  1,  1,  2,  1,  1,  2,  1,
        4,  2,  2,  0,  6,  1,  2,  3,  1,  3,  2,  2, 47,  3,  1,  1,  2,
        3,  2,  4,  3,  1,  2,  2,  2,  3,  3,  1,  0,  3,  0,  5,  3,  2,
        2,  2,  0,  7,  1,  3,  0,  3,  4,  0,  3,  2,  2])}, {'ts_index': 120, 'loc': 7, 'gap': 0.09547461571195862, 'distances': array([0.14552779, 0.11454377, 0.20192753, 0.14897866, 0.14955752,
       0.32536506, 0.15472945, 0.12176968, 0.172826  , 0.33606054,
       0.08625686, 0.2903853 , 0.12096079, 0.10310217, 0.30826203,
       0.14334316, 0.14096431, 0.13683036, 0.33683301, 0.16130878,
       0.14851105, 0.1330296 , 0.        , 0.14017211, 0.10983958,
       0.10526535, 0.12192011, 0.09271233, 0.12627099, 0.10736181,
       0.1180718 , 0.17322078, 0.09913321, 0.11222604]), 'delta_distances': array([0., 0., 0., 0., 0., 0., 0., 0., 0., 0., 0., 0., 0., 0., 0., 0., 0.,
       0., 0., 0., 0., 0., 0., 0., 0., 0., 0., 0., 0., 0., 0., 0., 0., 0.]), 'locations': array([17,  5,  6, 22,  4, 38,  3,  4,  4, 35, 10,  3,  1,  5, 28, 10, 10,
        6, 45,  7,  7,  4,  7, 28,  5,  5, 15, 13,  8,  2,  5,  5, 12, 14])}, {'ts_index': 51, 'loc': 1, 'gap': 0.039681887391047777, 'distances': array([0.29548534, 0.18422966, 0.19495447, 0.        , 0.27866259,
       0.22381438]), 'delta_distances': array([0., 0., 0., 0., 0., 0.]), 'locations': array([13,  0,  0,  1,  0,  0])}], 'clusters': array([1, 1, 1, 1, 2, 1, 1, 1, 1, 1, 1, 2, 0, 2, 1, 1, 1, 1, 2, 1, 3, 1,
       1, 1, 2, 2, 1, 1, 1, 1, 1, 1, 1, 1, 2, 1, 1, 1, 3, 1, 1, 2, 1, 1,
       1, 1, 1, 1, 1, 1, 1, 3, 1, 1, 2, 1, 1, 1, 2, 1, 0, 2, 1, 1, 1, 1,
       1, 1, 1, 1, 1, 1, 1, 1, 1, 1, 1, 1, 1, 1, 1, 2, 2, 1, 1, 1, 1, 1,
       1, 1, 1, 3, 1, 1, 1, 1, 1, 1, 2, 1, 1, 2, 1, 1, 1, 1, 1, 1, 1, 1,
       1, 1, 2, 1, 1, 1, 1, 1, 1, 1, 2, 1, 1, 1, 1, 1, 1, 2, 1, 1, 1, 1,
       1, 1, 1, 2, 2, 1, 2, 1, 1, 1, 1, 1, 1, 1, 1, 1, 1, 1, 1, 1, 1, 2,
       1, 1, 1, 1, 1, 1, 1, 1, 1, 1, 2, 2, 1, 1, 1, 1, 1, 1, 1, 1, 1, 1,
       1, 1, 1, 1, 1, 2, 1, 1, 1, 1, 2, 1, 1, 1, 1, 1, 1, 2, 2, 1, 1, 1,
       1, 1]), 'time': 1685.6965117454529}}}