{'FOTS': {5: {'RI': 0.4677386934673367, 'num_clusters': 7, 'uShapelets': [{'ts_index': 89, 'loc': 48, 'gap': 0.06097970943120623, 'distances': array([0.21090441, 0.41454599, 0.28787074, 0.25824138, 0.28329801,
       0.45750712, 0.37234074, 0.26807434, 0.165448  , 0.23196902,
       0.17523671, 0.1773469 , 0.37100455, 0.16911717, 0.41885009,
       0.21936457, 0.22289383, 0.40144134, 0.30534512, 0.35752525,
       0.26209241, 0.32725785, 0.26474354, 0.39316861, 0.28699974,
       0.12345771, 0.23754278, 0.32328072, 0.13617102, 0.19504509,
       0.36389205, 0.3914004 , 0.19443833, 0.22479284, 0.34879052,
       0.3586773 , 0.21383406, 0.35422676, 0.30429223, 0.14398546,
       0.28578037, 0.3058438 , 0.25143264, 0.31748004, 0.28725122,
       0.23149756, 0.12254928, 0.43740208, 0.31359349, 0.21803914,
       0.21621881, 0.1108454 , 0.15598316, 0.21860296, 0.36621761,
       0.29956361, 0.17661374, 0.25108493, 0.3289634 , 0.19794281,
       0.26335056, 0.12481644, 0.23431382, 0.28356875, 0.10185216,
       0.30351317, 0.36724974, 0.28308717, 0.22823618, 0.12837604,
       0.31533274, 0.19520117, 0.3353811 , 0.28334737, 0.31505971,
       0.23250667, 0.27223435, 0.30951234, 0.31296056, 0.23650693,
       0.12708836, 0.29666245, 0.15612456, 0.36411993, 0.15735766,
       0.20028858, 0.33955855, 0.38869836, 0.12299673, 0.        ,
       0.2851514 , 0.1863075 , 0.38102096, 0.14771556, 0.34136874,
       0.18914241, 0.28508978, 0.31827224, 0.30214088, 0.32713153,
       0.23985687, 0.15731184, 0.41739206, 0.13355914, 0.30777656,
       0.25673147, 0.28178267, 0.23457562, 0.16680594, 0.27452988,
       0.24022245, 0.29573401, 0.35752037, 0.30386987, 0.25733689,
       0.15332638, 0.25869958, 0.25925007, 0.27015439, 0.37955434,
       0.26379028, 0.42350996, 0.199923  , 0.22461843, 0.33990036,
       0.25344752, 0.20205155, 0.40355972, 0.28817345, 0.27487074,
       0.12736672, 0.32215698, 0.17369351, 0.38238461, 0.16945359,
       0.16064528, 0.30058381, 0.35342349, 0.24729745, 0.30245453,
       0.32020139, 0.26042796, 0.34396457, 0.2150791 , 0.13367899,
       0.26183387, 0.28739073, 0.27985914, 0.28795027, 0.20291032,
       0.33452416, 0.31791164, 0.22930892, 0.32299781, 0.15527076,
       0.19441785, 0.35977517, 0.23234013, 0.13453584, 0.13561051,
       0.41411056, 0.3237321 , 0.1451098 , 0.42255685, 0.32940225,
       0.15096836, 0.05762465, 0.37925807, 0.33540474, 0.39583375,
       0.34590691, 0.22875776, 0.2202717 , 0.36463843, 0.21537182,
       0.14459116, 0.4079393 , 0.21897376, 0.41301573, 0.22881883,
       0.26644162, 0.32796604, 0.19542813, 0.19080783, 0.10708679,
       0.39391054, 0.38228139, 0.27502073, 0.27732976, 0.2461298 ,
       0.41961587, 0.31787378, 0.40730436, 0.24082236, 0.3115236 ,
       0.35798215, 0.31645805, 0.36693781, 0.27425338, 0.30802874]), 'delta_distances': array([0., 0., 0., 0., 0., 0., 0., 0., 0., 0., 0., 0., 0., 0., 0., 0., 0.,
       0., 0., 0., 0., 0., 0., 0., 0., 0., 0., 0., 0., 0., 0., 0., 0., 0.,
       0., 0., 0., 0., 0., 0., 0., 0., 0., 0., 0., 0., 0., 0., 0., 0., 0.,
       0., 0., 0., 0., 0., 0., 0., 0., 0., 0., 0., 0., 0., 0., 0., 0., 0.,
       0., 0., 0., 0., 0., 0., 0., 0., 0., 0., 0., 0., 0., 0., 0., 0., 0.,
       0., 0., 0., 0., 0., 0., 0., 0., 0., 0., 0., 0., 0., 0., 0., 0., 0.,
       0., 0., 0., 0., 0., 0., 0., 0., 0., 0., 0., 0., 0., 0., 0., 0., 0.,
       0., 0., 0., 0., 0., 0., 0., 0., 0., 0., 0., 0., 0., 0., 0., 0., 0.,
       0., 0., 0., 0., 0., 0., 0., 0., 0., 0., 0., 0., 0., 0., 0., 0., 0.,
       0., 0., 0., 0., 0., 0., 0., 0., 0., 0., 0., 0., 0., 0., 0., 0., 0.,
       0., 0., 0., 0., 0., 0., 0., 0., 0., 0., 0., 0., 0., 0., 0., 0., 0.,
       0., 0., 0., 0., 0., 0., 0., 0., 0., 0., 0., 0., 0.]), 'locations': array([84, 19,  4, 76, 12, 49, 49, 87, 55, 58, 40, 13,  5, 60, 44, 37, 39,
       34, 81, 57, 45, 74, 28, 57, 58, 28, 31, 43, 86, 80, 76, 67, 55, 30,
       83, 64, 80, 90, 33,  6, 31, 85,  4, 34,  7, 77, 55, 36, 36, 68, 17,
       32, 75, 67, 27, 76, 49, 38,  3, 64, 14, 24, 34, 36, 75, 52, 77, 47,
       33, 44, 64, 45, 76, 88,  6, 77,  3, 40, 31,  3, 60, 57, 38, 77, 45,
       70, 53, 52, 37, 48, 86, 16, 40, 33, 38,  4, 68, 53, 44,  2, 87,  1,
       51, 90,  6, 51, 83, 66, 46, 47, 36, 83, 69,  8, 10, 32, 74, 36,  5,
        8, 84, 61, 59, 39, 79, 43, 65, 67, 13, 64, 63, 69, 33,  7, 36, 49,
       51,  7,  5, 76, 22,  4, 81, 23, 30,  5,  2, 24, 79, 82,  9, 74, 13,
       48,  3, 64, 81, 52, 75, 78,  4, 24, 76, 62, 37, 34, 84, 29, 80, 85,
        5, 63, 35,  2, 69, 33,  7, 16, 34, 66, 84, 26, 59, 79, 70, 76, 65,
        3, 52, 66, 83, 34,  8,  4, 40, 22, 34, 68, 43, 10])}, {'ts_index': 156, 'loc': 38, 'gap': 0.07871292750469527, 'distances': array([0.36837098, 0.43353977, 0.29146543, 0.38657532, 0.18686087,
       0.33980971, 0.21819138, 0.40493329, 0.25114122, 0.43327585,
       0.41844581, 0.25342118, 0.41010792, 0.14777868, 0.42297679,
       0.21204263, 0.397495  , 0.29633437, 0.16941276, 0.40523013,
       0.42076543, 0.41696062, 0.23069618, 0.11302263, 0.43041194,
       0.20996317, 0.22375616, 0.4064969 , 0.32760959, 0.14278261,
       0.42074557, 0.43244185, 0.31301655, 0.42128941, 0.35078754,
       0.16972179, 0.40917149, 0.21654877, 0.36210354, 0.31564116,
       0.34529745, 0.41069582, 0.19507774, 0.39764163, 0.16277951,
       0.1940499 , 0.41525116, 0.27611929, 0.35239262, 0.38757093,
       0.27230133, 0.31814627, 0.30172723, 0.42908861, 0.3569978 ,
       0.16370287, 0.31280003, 0.27860546, 0.36186637, 0.40355856,
       0.28449007, 0.33180969, 0.3130968 , 0.27850625, 0.38589557,
       0.42028772, 0.36705074, 0.213942  , 0.19820149, 0.35454745,
       0.23656852, 0.41975801, 0.16845644, 0.17451979, 0.37790288,
       0.32801082, 0.45229064, 0.42765654, 0.19003673, 0.42523663,
       0.20986448, 0.24252419, 0.24639757, 0.28125037, 0.30128613,
       0.14939143, 0.29807736, 0.41415415, 0.4231683 , 0.3081624 ,
       0.44597216, 0.13979039, 0.22676696, 0.26424654, 0.33581639,
       0.27333413, 0.238608  , 0.17497016, 0.34051647, 0.38247949,
       0.21111242, 0.30513461, 0.27261613, 0.18889072, 0.35689461,
       0.29291253, 0.22429717, 0.42016122, 0.21499453, 0.41580082,
       0.31104585, 0.14617496, 0.3102668 , 0.2494011 , 0.31850215,
       0.39237885, 0.34091325, 0.43182174, 0.16631614, 0.42627684,
       0.27796463, 0.35509618, 0.27250108, 0.17690249, 0.17594916,
       0.16787484, 0.38399988, 0.42212687, 0.        , 0.38673215,
       0.41806051, 0.41185102, 0.20084983, 0.19523911, 0.22088979,
       0.41604903, 0.44231255, 0.34555381, 0.366297  , 0.35530242,
       0.3973546 , 0.41391805, 0.22082287, 0.3062581 , 0.41695451,
       0.21952917, 0.34788412, 0.1516828 , 0.26334814, 0.18213111,
       0.23554499, 0.22757942, 0.42569058, 0.37627784, 0.34999387,
       0.19267915, 0.39094532, 0.10071882, 0.42895953, 0.38920357,
       0.36520727, 0.171424  , 0.33315609, 0.43489482, 0.3615061 ]), 'delta_distances': array([0., 0., 0., 0., 0., 0., 0., 0., 0., 0., 0., 0., 0., 0., 0., 0., 0.,
       0., 0., 0., 0., 0., 0., 0., 0., 0., 0., 0., 0., 0., 0., 0., 0., 0.,
       0., 0., 0., 0., 0., 0., 0., 0., 0., 0., 0., 0., 0., 0., 0., 0., 0.,
       0., 0., 0., 0., 0., 0., 0., 0., 0., 0., 0., 0., 0., 0., 0., 0., 0.,
       0., 0., 0., 0., 0., 0., 0., 0., 0., 0., 0., 0., 0., 0., 0., 0., 0.,
       0., 0., 0., 0., 0., 0., 0., 0., 0., 0., 0., 0., 0., 0., 0., 0., 0.,
       0., 0., 0., 0., 0., 0., 0., 0., 0., 0., 0., 0., 0., 0., 0., 0., 0.,
       0., 0., 0., 0., 0., 0., 0., 0., 0., 0., 0., 0., 0., 0., 0., 0., 0.,
       0., 0., 0., 0., 0., 0., 0., 0., 0., 0., 0., 0., 0., 0., 0., 0., 0.,
       0., 0., 0., 0., 0., 0., 0., 0., 0., 0., 0., 0.]), 'locations': array([75, 25, 42, 82, 50, 66, 19, 10, 73, 27,  5, 11, 36,  9, 24, 52, 27,
        1, 54,  9, 34, 71, 77, 30, 60, 63, 48,  5, 79, 28, 77, 59, 57, 18,
       14, 58, 43, 58, 58,  6, 14,  8, 46, 35, 85, 73, 66, 36, 19,  0, 74,
       82, 66, 90, 80, 42, 79, 67, 75, 21, 84,  2, 34, 42, 76, 58, 65, 52,
       40, 33,  4, 37, 30, 78, 21,  6, 61, 25, 48, 90, 74, 42, 15,  7, 88,
       34, 41,  7,  6, 90, 46,  9, 82, 26, 21, 87, 34, 45, 52, 88, 85, 86,
        9, 28, 75,  7,  9, 77,  8, 35, 79, 77, 47,  9, 44, 50, 61, 26, 28,
       39, 49, 84, 66, 68, 76, 68,  2, 22, 38, 50, 73, 49, 35, 46, 77, 48,
        3, 59, 86, 84, 20, 54, 50, 47, 42,  4, 67, 80, 43,  4,  4, 56, 81,
        3,  8, 46, 35, 50, 63, 80,  5, 39, 38,  7, 78])}, {'ts_index': 38, 'loc': 47, 'gap': 0.071706430121485, 'distances': array([0.18952514, 0.29071917, 0.28326799, 0.37084479, 0.33484623,
       0.12313583, 0.3168597 , 0.15154436, 0.34380112, 0.27097204,
       0.27469743, 0.30252901, 0.40543486, 0.41337876, 0.41566619,
       0.36386744, 0.37128211, 0.32603629, 0.38017577, 0.39264761,
       0.27219664, 0.        , 0.14589328, 0.1020259 , 0.20212421,
       0.29034283, 0.30577496, 0.21214119, 0.41143247, 0.31251535,
       0.29167585, 0.18317766, 0.29845752, 0.297074  , 0.37419948,
       0.2273237 , 0.1655588 , 0.37231468, 0.3539974 , 0.33516329,
       0.24542269, 0.30353185, 0.20470324, 0.1893764 , 0.23880945,
       0.35512884, 0.41013082, 0.35428807, 0.19535559, 0.22650466,
       0.3876497 , 0.35117398, 0.32960799, 0.15816889, 0.33407391,
       0.34900248, 0.41668261, 0.25585917, 0.22877663, 0.3953127 ,
       0.38639176, 0.35591012, 0.40236943, 0.27346883, 0.25645763,
       0.3603523 , 0.14706535, 0.07915284, 0.3765764 , 0.18887556,
       0.15960382, 0.37532587, 0.32210302, 0.31764559, 0.17915728,
       0.26216177, 0.25554317, 0.37169501, 0.26065634, 0.28999401,
       0.33312282, 0.40661208, 0.34539315, 0.32021161, 0.32504248,
       0.24666104, 0.33701458, 0.32779274, 0.15621408, 0.32303702,
       0.36906454, 0.23899696, 0.23194495, 0.31113643, 0.37507422,
       0.34679673, 0.35700526, 0.37886771, 0.28663967, 0.39541402,
       0.38041958, 0.37575534, 0.33172261, 0.19656656, 0.41779642,
       0.36125683, 0.25937221, 0.39149083, 0.36639286, 0.3047149 ]), 'delta_distances': array([0., 0., 0., 0., 0., 0., 0., 0., 0., 0., 0., 0., 0., 0., 0., 0., 0.,
       0., 0., 0., 0., 0., 0., 0., 0., 0., 0., 0., 0., 0., 0., 0., 0., 0.,
       0., 0., 0., 0., 0., 0., 0., 0., 0., 0., 0., 0., 0., 0., 0., 0., 0.,
       0., 0., 0., 0., 0., 0., 0., 0., 0., 0., 0., 0., 0., 0., 0., 0., 0.,
       0., 0., 0., 0., 0., 0., 0., 0., 0., 0., 0., 0., 0., 0., 0., 0., 0.,
       0., 0., 0., 0., 0., 0., 0., 0., 0., 0., 0., 0., 0., 0., 0., 0., 0.,
       0., 0., 0., 0., 0., 0., 0., 0.]), 'locations': array([31, 54, 24, 83, 75, 69, 71, 82,  8, 83, 27, 53, 39, 35, 53, 79, 90,
       48, 14, 35, 65, 47, 77, 37, 76, 49, 10, 49, 89, 41,  4, 58, 70, 74,
       16, 36, 64, 53, 79, 74, 61, 21, 31,  2, 34, 52, 72, 39, 65, 65, 82,
       21,  6, 22, 66, 54, 54, 47,  5, 11,  2, 90, 83, 53, 62, 71, 28, 32,
       76, 32, 32, 44, 76, 76, 53, 48, 40,  6, 61, 10, 57, 15, 67, 90,  2,
       40, 50, 73, 51, 79,  4, 59, 56, 41, 20, 77, 66, 35,  2, 44, 57, 31,
        3, 47, 38,  9, 68,  5,  3,  3])}, {'ts_index': 114, 'loc': 55, 'gap': 0.07105549857912136, 'distances': array([0.41023801, 0.35282751, 0.2995279 , 0.41632302, 0.2936445 ,
       0.21932218, 0.36419824, 0.25971694, 0.125301  , 0.33049874,
       0.38297997, 0.29477813, 0.32664651, 0.32189249, 0.38024105,
       0.37173271, 0.27036887, 0.20349784, 0.33293333, 0.40088311,
       0.37422336, 0.34254227, 0.11157254, 0.29670191, 0.29660934,
       0.11188997, 0.27725117, 0.24544664, 0.3343114 , 0.37317348,
       0.36791329, 0.31724577, 0.11732665, 0.20341344, 0.2938961 ,
       0.33105439, 0.40111192, 0.1677359 , 0.37456962, 0.36373307,
       0.42701276, 0.19704802, 0.30484773, 0.44023255, 0.38407792,
       0.29669886, 0.2596709 , 0.38142317, 0.35048877, 0.36278498,
       0.        , 0.21591059, 0.31780119, 0.3011842 , 0.36558564,
       0.27560691, 0.42512781, 0.36334595, 0.33511738, 0.32900441,
       0.34696292, 0.26202476, 0.29893069, 0.33787602, 0.28486222,
       0.27054058, 0.31847146, 0.13749629, 0.36457572, 0.37845599,
       0.41025302, 0.26811888, 0.18866573, 0.38433701, 0.38576751,
       0.21210903, 0.32861979, 0.06969506, 0.37050731, 0.37593939,
       0.23010868, 0.2747527 , 0.24712161, 0.15995214, 0.32057004,
       0.4160268 , 0.38212054, 0.28161398, 0.33689027, 0.21695491]), 'delta_distances': array([0., 0., 0., 0., 0., 0., 0., 0., 0., 0., 0., 0., 0., 0., 0., 0., 0.,
       0., 0., 0., 0., 0., 0., 0., 0., 0., 0., 0., 0., 0., 0., 0., 0., 0.,
       0., 0., 0., 0., 0., 0., 0., 0., 0., 0., 0., 0., 0., 0., 0., 0., 0.,
       0., 0., 0., 0., 0., 0., 0., 0., 0., 0., 0., 0., 0., 0., 0., 0., 0.,
       0., 0., 0., 0., 0., 0., 0., 0., 0., 0., 0., 0., 0., 0., 0., 0., 0.,
       0., 0., 0., 0., 0.]), 'locations': array([36,  4, 76, 34, 13, 26, 50, 90, 24, 59,  9, 35, 80, 44, 30, 45, 80,
       90, 77, 36, 36, 47, 76, 49, 31,  8, 20, 40, 52, 47,  8,  3, 50,  8,
       72,  3, 54, 77, 33, 16, 28, 57,  8, 33, 15, 74,  5, 60, 51, 13, 55,
       80, 36, 88, 50, 54,  9, 31, 52,  4, 34,  6, 36, 55, 20, 82, 48, 81,
       43,  4, 71, 51,  5, 71, 35, 78, 69, 56, 34, 84,  3, 87,  4, 49,  4,
       40, 48, 68, 78, 40])}, {'ts_index': 70, 'loc': 18, 'gap': 0.06373034222418372, 'distances': array([0.20732931, 0.12864416, 0.30416551, 0.27212612, 0.27723167,
       0.18361029, 0.1631207 , 0.29085915, 0.16273568, 0.12517558,
       0.3160072 , 0.34546076, 0.29673314, 0.09776955, 0.25075702,
       0.26511262, 0.29226878, 0.15116278, 0.18424465, 0.16174001,
       0.20322875, 0.28667369, 0.21048468, 0.29558084, 0.18378115,
       0.3244726 , 0.        , 0.2052926 , 0.16027091, 0.17683299,
       0.18182646, 0.31571642, 0.2967833 , 0.27255911, 0.10879648,
       0.13773235, 0.14063586, 0.14577906, 0.10189445, 0.14142253,
       0.26779694, 0.17083617, 0.25998736, 0.16745033, 0.11656911,
       0.20629371, 0.20922702, 0.29848064, 0.26607959, 0.23387857,
       0.21266061, 0.33670931, 0.14314099, 0.11146573, 0.14630096,
       0.30532105, 0.0896123 , 0.16399538, 0.11714592, 0.15430919,
       0.22006293, 0.16772368, 0.13050554, 0.2309572 , 0.14377574,
       0.24798604, 0.21943551, 0.32194036, 0.11235163, 0.15956747,
       0.20999509, 0.0797338 , 0.10929322]), 'delta_distances': array([0., 0., 0., 0., 0., 0., 0., 0., 0., 0., 0., 0., 0., 0., 0., 0., 0.,
       0., 0., 0., 0., 0., 0., 0., 0., 0., 0., 0., 0., 0., 0., 0., 0., 0.,
       0., 0., 0., 0., 0., 0., 0., 0., 0., 0., 0., 0., 0., 0., 0., 0., 0.,
       0., 0., 0., 0., 0., 0., 0., 0., 0., 0., 0., 0., 0., 0., 0., 0., 0.,
       0., 0., 0., 0., 0.]), 'locations': array([50, 76, 21, 49, 14, 59, 88, 73, 19, 14, 31, 87, 73, 39, 16, 79, 77,
       42,  2, 13, 54, 79, 57, 64, 52, 61, 18,  3, 48, 81, 73, 18, 61, 50,
       60, 22, 57, 53, 62, 54, 29, 72, 51, 69, 30, 53, 79,  3, 54, 76, 80,
        3,  1, 16, 10, 66, 40, 29, 28, 57, 25, 83, 25, 86, 86, 76,  1, 45,
       60, 73, 61, 33, 62])}, {'ts_index': 11, 'loc': 48, 'gap': 0.03824143321814266, 'distances': array([0.29705172, 0.27882906, 0.        , 0.15505308, 0.16115661,
       0.27843448, 0.30554408, 0.24640409, 0.28671948, 0.22881694,
       0.27044366, 0.29134691, 0.28517381, 0.29687755, 0.30550561,
       0.29926761, 0.29662468, 0.33546433, 0.2933205 , 0.29882592,
       0.23201898, 0.19690601]), 'delta_distances': array([0., 0., 0., 0., 0., 0., 0., 0., 0., 0., 0., 0., 0., 0., 0., 0., 0.,
       0., 0., 0., 0., 0.]), 'locations': array([12, 70, 48,  8, 12, 30,  7, 84, 62, 48,  8, 43, 43, 18, 61, 82, 77,
        7, 32, 23, 35, 83])}, {'ts_index': 141, 'loc': 4, 'gap': 0.09268600139842348, 'distances': array([0.19208293, 0.36853327, 0.23846076, 0.29079431, 0.15481291,
       0.40700127, 0.18779941, 0.26290007, 0.28746406, 0.38172101,
       0.25165497, 0.21274589, 0.22357379, 0.25195845, 0.        ,
       0.1470291 , 0.16406137]), 'delta_distances': array([0., 0., 0., 0., 0., 0., 0., 0., 0., 0., 0., 0., 0., 0., 0., 0., 0.]), 'locations': array([34, 35, 44, 30, 77, 36, 54, 54, 63, 14, 40, 13, 39, 52,  4, 48, 48])}], 'clusters': array([3, 5, 5, 7, 2, 0, 2, 3, 1, 2, 1, 6, 3, 1, 2, 4, 2, 5, 2, 5, 4, 2,
       6, 5, 5, 1, 2, 2, 1, 6, 2, 2, 7, 7, 2, 5, 5, 4, 3, 1, 3, 2, 3, 2,
       3, 7, 1, 0, 5, 2, 5, 1, 1, 2, 2, 4, 5, 3, 5, 4, 6, 1, 5, 3, 1, 7,
       2, 5, 7, 1, 5, 4, 3, 3, 4, 5, 5, 5, 3, 2, 1, 2, 1, 4, 1, 2, 5, 2,
       1, 1, 2, 7, 0, 1, 3, 4, 2, 7, 2, 2, 2, 1, 5, 1, 5, 2, 5, 5, 1, 5,
       5, 7, 2, 2, 4, 1, 4, 5, 2, 2, 3, 3, 2, 7, 3, 2, 3, 5, 2, 5, 1, 2,
       1, 5, 1, 1, 3, 2, 5, 2, 7, 7, 5, 5, 1, 2, 7, 5, 5, 5, 2, 2, 2, 7,
       1, 4, 2, 5, 1, 1, 5, 3, 1, 2, 2, 1, 1, 2, 5, 5, 4, 5, 5, 4, 5, 1,
       2, 4, 5, 2, 5, 2, 5, 2, 1, 2, 2, 5, 6, 4, 2, 3, 2, 5, 5, 5, 2, 5,
       5, 4]), 'time': 525.1987450122833}}, 'UED': {5: {'RI': 0.5196482412060301, 'num_clusters': 2, 'uShapelets': [{'ts_index': 97, 'loc': 4, 'gap': 1.0729930309536364, 'distances': array([3.2373128, 6.3615168, 1.3282094, 4.7596514, 3.190215 , 2.180863 ,
       5.8843638, 4.776474 , 4.4277784, 2.7027334, 3.7499134, 1.9008912,
       7.017861 , 3.323433 , 4.7342308, 4.8419862, 6.3505876, 5.396115 ,
       5.9193996, 3.8096318, 4.0361614, 2.991615 , 4.9104566, 3.6440026,
       2.424664 , 3.5073084, 4.4136166, 4.538177 , 2.4667834, 3.0514914,
       6.8043786, 5.1915546, 1.4250798, 4.1360062, 2.4768614, 2.5583808,
       4.3472058, 5.3218314, 7.2185274, 3.3365202, 4.1079444, 6.116203 ,
       4.7982612, 5.2784244, 4.1681722, 2.3573652, 4.8917582, 4.4154512,
       4.4188772, 3.5839734, 3.0765566, 4.3447916, 2.6883108, 3.4454952,
       2.8491938, 1.7422494, 3.2356214, 4.1519998, 5.5052628, 1.5889442,
       6.835923 , 5.9336294, 5.4741942, 2.509337 , 2.5472444, 4.0528092,
       5.2510056, 6.2317028, 2.7276556, 2.9234778, 2.927068 , 1.7651812,
       2.7848088, 1.5310908, 3.2322772, 2.6893962, 3.4777126, 5.1611932,
       3.7718428, 2.1717702, 1.306971 , 6.2048244, 2.0970732, 3.439127 ,
       0.9883374, 4.9712088, 0.6608044, 5.126838 , 4.9828668, 5.1167462,
       4.1194576, 6.361913 , 2.5857646, 3.5603604, 5.1971356, 2.8988352,
       3.4056832, 0.       , 2.841739 , 1.898452 , 6.1189268, 5.0490876,
       3.9640256, 3.3494396, 2.569704 , 5.4789096, 3.7509358, 2.842477 ,
       5.3432504, 3.7360466, 3.6964324, 4.5499144, 2.7557922, 3.0282986,
       0.768297 , 1.717997 , 2.094783 , 2.6944364, 2.1738378, 4.0250406,
       4.7764024, 8.2458166, 5.902052 , 3.178002 , 4.4433098, 5.0356022,
       3.4617838, 1.7443816, 8.152886 , 3.741466 , 4.6226952, 2.14201  ,
       0.9320824, 3.2435558, 4.2972566, 3.7778006, 4.2272802, 2.885062 ,
       4.262022 , 6.1631238, 3.5942022, 4.7450774, 6.036999 , 3.8963542,
       5.0724794, 1.9115098, 2.9914844, 2.1122194, 3.692564 , 4.7358532,
       2.9919658, 4.5437012, 3.6074148, 3.4982934, 2.961799 , 3.484717 ,
       4.3850204, 2.0491822, 3.4627102, 2.4307514, 2.038654 , 1.9770608,
       3.5841438, 4.8755818, 6.4466524, 6.1209136, 4.4059612, 3.6720268,
       3.9794532, 3.504238 , 4.2542724, 5.9223116, 5.8460882, 5.2166888,
       6.6925142, 6.3559684, 3.3586636, 6.3443444, 2.7645384, 5.7815402,
       5.200094 , 2.795378 , 1.749654 , 4.823386 , 3.4718354, 2.5498258,
       3.7176704, 3.5389868, 2.5460342, 6.5597152, 3.5067018, 6.4596622,
       2.282208 , 5.4066048, 4.4726096, 4.104734 , 4.3194694, 4.2474446,
       5.6516296, 2.3800442]), 'delta_distances': array([6.3328964, 6.2770856, 3.573222 , 5.3853008, 4.5013308, 3.657594 ,
       9.9301512, 5.801004 , 5.4637368, 3.8423204, 5.63292  , 3.0708664,
       4.8310952, 4.9435764, 7.0336212, 6.757316 , 7.865696 , 5.5813812,
       5.9856004, 3.662182 , 6.8063744, 4.4260928, 6.8361864, 5.1762252,
       3.8187904, 5.215044 , 6.0063416, 5.7329924, 4.7549152, 5.5901176,
       9.3278016, 8.3977564, 4.0085568, 5.3804956, 3.0215372, 3.3859872,
       4.4546268, 6.442168 , 5.9592712, 3.4278692, 4.1246808, 6.0212376,
       6.5785152, 5.324106 , 7.0557376, 5.6223256, 5.6440156, 7.153854 ,
       5.3131008, 4.508214 , 4.5979744, 4.9047084, 4.9219244, 4.8182672,
       4.488492 , 2.9181076, 4.8700032, 6.5511904, 6.4068772, 2.9934136,
       5.8810056, 5.7320064, 5.8177116, 4.5238   , 4.15533  , 6.3779012,
       6.7688768, 5.7268008, 4.9262428, 6.2870076, 4.6419856, 3.7101764,
       3.9817872, 3.8379588, 6.1331956, 3.583602 , 5.2359644, 8.2617276,
       6.039956 , 4.0686252, 3.6992648, 5.5541976, 3.3629416, 5.494276 ,
       2.8248092, 5.205268 , 1.398042 , 5.5598752, 5.338706 , 7.2507808,
       4.0691584, 4.8581984, 5.1107384, 4.3018652, 4.8596132, 3.8724316,
       5.1809576, 0.       , 3.8955104, 3.3088292, 9.234784 , 4.3276732,
       4.7246552, 5.1464772, 3.5940768, 6.866102 , 4.4685968, 4.121352 ,
       4.7298084, 3.8233744, 5.2933288, 3.9881196, 4.3217632, 3.8053296,
       2.4200136, 2.5432648, 4.4706672, 5.1767364, 3.6274032, 3.8379732,
       5.3987732, 5.2945064, 6.0766624, 4.10804  , 4.25336  , 5.8263552,
       5.148918 , 4.0054268, 8.487778 , 3.821064 , 6.3772492, 4.6244252,
       2.3301404, 3.6499176, 5.3410388, 5.6829212, 6.231906 , 3.9736768,
       5.5651616, 6.2900432, 5.4165356, 7.2843476, 5.8354864, 4.588324 ,
       6.2707028, 2.9417232, 4.2083604, 3.0018704, 4.6542244, 6.0603636,
       3.1920584, 4.72793  , 5.9420708, 5.7186684, 4.5680388, 4.626414 ,
       4.2658884, 3.7907792, 5.118606 , 4.6417972, 2.6363444, 3.8317724,
       4.0002496, 6.740896 , 6.3651688, 7.2484344, 4.1886992, 5.1241756,
       5.7621136, 3.8957336, 6.7480424, 7.8114208, 5.0906124, 5.6769628,
       6.3954104, 6.8639204, 4.6785088, 7.4347868, 3.4332536, 5.1386336,
       5.306278 , 3.8548136, 2.5947172, 6.5367896, 6.0231704, 5.1291976,
       4.273472 , 4.050668 , 4.231832 , 7.617824 , 4.8193216, 6.332466 ,
       3.6565888, 5.3959792, 4.4422088, 6.7603248, 5.4172776, 6.054374 ,
       6.0215268, 3.9758908]), 'locations': array([ 1,  0,  3,  0, 88,  1,  1,  0,  0,  4, 37, 89, 70,  1,  8,  2,  1,
       56, 35, 88,  0,  1,  1,  1, 89, 89,  2,  0,  2,  1,  6,  2,  4,  1,
       90,  3,  0,  0, 22,  0,  1, 68, 36, 52,  2,  2, 42,  0,  0, 90,  1,
        0,  5,  4, 88,  2,  2,  1, 88,  4, 90,  0,  1, 89,  5,  2, 41,  1,
        1,  0,  1,  1,  2,  0,  1,  2,  0,  2,  1,  2,  1,  1, 89,  2,  2,
       44,  3,  4,  1,  1,  0, 90,  4,  1,  0,  1,  0,  4,  0,  1,  2, 89,
        4, 89,  2,  1,  3,  1,  1,  0,  3,  3, 90,  0,  4,  0,  1,  1,  1,
        3, 89, 75,  1,  0,  1, 90,  6, 90, 41,  1,  0,  0,  1,  2,  2,  0,
       89,  1,  0,  1,  4,  3,  0,  4, 42,  2,  1, 89,  0,  1,  0,  1,  2,
       90,  2,  2,  0,  6,  1,  1,  2,  0,  1,  2, 45, 90,  1,  1, 41,  1,
        3, 45, 80,  1,  0,  1,  1,  1,  1,  1,  0, 89,  1,  1,  2,  3,  1,
        1,  0,  0,  3,  0,  2, 74,  0,  3,  0,  3,  1,  1])}], 'clusters': array([1, 0, 1, 1, 1, 1, 0, 1, 1, 1, 1, 1, 0, 1, 1, 1, 0, 1, 0, 1, 1, 1,
       1, 1, 1, 1, 1, 1, 1, 1, 0, 1, 1, 1, 1, 1, 1, 1, 0, 1, 1, 0, 1, 1,
       1, 1, 1, 1, 1, 1, 1, 1, 1, 1, 1, 1, 1, 1, 0, 1, 0, 0, 0, 1, 1, 1,
       1, 0, 1, 1, 1, 1, 1, 1, 1, 1, 1, 1, 1, 1, 1, 0, 1, 1, 1, 1, 1, 1,
       1, 1, 1, 0, 1, 1, 1, 1, 1, 1, 1, 1, 0, 1, 1, 1, 1, 0, 1, 1, 1, 1,
       1, 1, 1, 1, 1, 1, 1, 1, 1, 1, 1, 0, 0, 1, 1, 1, 1, 1, 0, 1, 1, 1,
       1, 1, 1, 1, 1, 1, 1, 0, 1, 1, 0, 1, 1, 1, 1, 1, 1, 1, 1, 1, 1, 1,
       1, 1, 1, 1, 1, 1, 1, 1, 1, 1, 0, 0, 1, 1, 1, 1, 1, 0, 0, 1, 0, 0,
       1, 0, 1, 0, 1, 1, 1, 1, 1, 1, 1, 1, 1, 0, 1, 0, 1, 0, 1, 1, 1, 1,
       0, 1]), 'time': 45.065932512283325}, 24: {'RI': 0.560251256281407, 'num_clusters': 3, 'uShapelets': [{'ts_index': 80, 'loc': 3, 'gap': 0.4046889386137025, 'distances': array([0.71002142, 0.73951358, 1.26899563, 0.55537771, 1.48042108,
       0.71531592, 1.36235096, 1.02174175, 0.87838521, 0.83448613,
       0.94086679, 2.44519971, 2.55646737, 1.26007037, 1.00162858,
       0.83463017, 0.86006988, 1.12299733, 1.8464345 , 1.10950604,
       1.96309967, 0.60806754, 0.78990621, 0.56440042, 1.53902567,
       1.89310092, 1.11541929, 0.55053442, 0.82677483, 0.81947379,
       1.22104646, 0.97714667, 0.91624875, 1.08288575, 2.4010255 ,
       0.50492567, 1.24277687, 0.74437963, 2.17369163, 0.98889283,
       0.52996642, 2.77317667, 0.84772892, 0.93394154, 0.86068325,
       0.45105225, 1.25669675, 0.92869588, 0.64693412, 1.08010096,
       0.85805871, 1.85417213, 0.81541796, 1.10527767, 2.70309488,
       0.47366288, 0.70306462, 1.08771538, 2.63528825, 1.11096233,
       1.66591829, 1.37838967, 1.05582721, 0.99460025, 0.92741538,
       0.86157817, 0.66485779, 1.13027383, 0.89291821, 0.81376671,
       0.68438125, 0.82379029, 0.86799567, 1.40910171, 0.85693208,
       1.04419104, 0.57421967, 0.7954055 , 0.81868338, 1.02520471,
       0.        , 1.61607817, 2.38223771, 0.60670554, 0.95001333,
       0.92158988, 1.02878042, 0.97710671, 0.64815579, 0.76074175,
       1.02092296, 2.18413029, 1.27400962, 0.8856045 , 1.11744967,
       0.71562117, 0.76820975, 0.78524308, 1.59627829, 0.96242629,
       1.00714667, 1.62503917, 0.69362188, 1.24942179, 0.55936804,
       0.88977771, 0.80778129, 0.45950158, 0.88186058, 0.81649971,
       0.72573221, 0.72867533, 2.32641363, 0.58092367, 0.72831608,
       0.87901538, 0.52498583, 0.47404883, 0.6408805 , 0.78512567,
       2.6377655 , 1.40419104, 1.08465013, 0.97812367, 0.84532979,
       1.28679304, 0.86776513, 1.35389804, 1.52908525, 0.84602746,
       0.61920425, 0.37353588, 0.61045783, 0.7284015 , 0.94571646,
       1.6061815 , 1.15901937, 0.81519092, 1.26924158, 1.02922133,
       0.75704654, 0.80570846, 0.7926035 , 0.81021017, 1.64263933,
       0.71876158, 0.71874833, 1.24224729, 1.07322458, 0.91969967,
       0.63421267, 0.97537371, 0.82569   , 2.223181  , 0.52286504,
       0.7638165 , 0.97311375, 0.72076012, 0.52418104, 0.99061196,
       0.78783838, 0.52173517, 1.30086154, 0.94001162, 1.3104335 ,
       2.32970042, 0.88523004, 0.69936546, 0.81585092, 0.69431942,
       0.87712842, 1.35831933, 1.0119205 , 0.85314075, 0.90496313,
       0.81182021, 0.59616271, 0.9308545 , 0.99478217, 0.95261146,
       0.67670042, 1.49993079, 0.44855017, 0.88612212, 0.71037421,
       0.72808546, 1.52876038, 0.64760996, 0.55662717, 0.81622675,
       0.85780879, 0.9858875 , 0.41105625, 1.82691617, 0.96705446,
       0.60054087, 1.12986979, 1.12719804, 0.71619287, 0.82071179]), 'delta_distances': array([1.56080858, 1.48563917, 2.46872133, 1.36350333, 2.02968058,
       1.48747225, 2.32273425, 2.01804183, 2.00049333, 1.99656242,
       1.95494625, 2.05534567, 2.24094175, 2.18643975, 1.69520425,
       1.8325595 , 1.6882205 , 2.17134967, 2.37250375, 1.89487067,
       2.7054305 , 1.52904008, 1.66578425, 1.40912367, 1.815552  ,
       2.14582983, 2.05232458, 1.31883708, 1.55858158, 2.09106925,
       1.89880983, 1.19371008, 1.6815965 , 1.96223458, 2.12996808,
       1.10410258, 1.779838  , 1.84596558, 2.37118375, 2.11112883,
       1.08367475, 2.36668725, 1.54316942, 2.10830642, 1.83302967,
       1.51194542, 3.04995408, 1.90121967, 1.47064825, 1.69238325,
       1.75893125, 1.97307558, 1.52481167, 2.16467492, 2.06992375,
       1.42551842, 1.68485308, 1.88297242, 2.06351667, 2.07457717,
       2.32927633, 2.46605058, 2.07401867, 1.88516642, 1.54523625,
       1.50967775, 1.48953842, 1.84704483, 1.73523167, 1.7169835 ,
       1.25072492, 1.892886  , 1.83203358, 2.74080458, 2.10937583,
       1.38141092, 1.43326033, 1.83513   , 1.65623092, 1.83288392,
       0.        , 2.90160683, 2.91410042, 1.32876433, 1.66353758,
       1.67073942, 1.83613608, 1.78131833, 1.44840367, 2.01466283,
       1.91886858, 2.50093542, 2.28264008, 1.631933  , 1.84283483,
       1.79039842, 1.84725633, 1.50165942, 3.26441733, 1.98696775,
       1.44436158, 1.81222283, 1.49850592, 1.87983167, 1.37111467,
       1.643024  , 1.45248933, 0.99048808, 1.64458583, 1.25718892,
       1.266286  , 1.3514075 , 1.95802992, 1.4902255 , 1.45206175,
       1.494394  , 1.08662033, 1.2116145 , 1.2561365 , 1.26111867,
       2.77040642, 2.27966333, 1.95509125, 1.75547467, 1.79651342,
       1.87043483, 1.31456467, 1.68134675, 1.9524095 , 1.84725067,
       1.46374792, 1.12186183, 1.44814167, 1.19741858, 1.94249925,
       1.916053  , 1.43773075, 1.44856167, 2.18956133, 1.51696483,
       1.53122908, 1.44375925, 1.65367117, 1.43210233, 2.780727  ,
       1.68703767, 1.81392192, 1.702057  , 1.41406292, 1.64965058,
       1.46604625, 1.40410242, 1.88328858, 2.21701558, 1.31153967,
       1.62872908, 1.36180867, 1.3411645 , 1.42853392, 1.95171692,
       1.2611005 , 1.14601708, 1.64229633, 1.15914292, 2.09264975,
       2.12050117, 1.56459367, 1.71964333, 1.64292825, 1.45852033,
       1.71174958, 1.38423958, 1.65097575, 1.70868667, 1.8926165 ,
       1.60433208, 1.2679165 , 1.63192575, 1.50160217, 1.63401667,
       1.16562242, 2.24174133, 0.94468917, 1.65144933, 1.49785458,
       1.45541183, 1.80814617, 1.26958942, 1.23455725, 2.08235425,
       1.48398592, 1.56214642, 1.19663575, 2.3632145 , 1.92086108,
       1.43372783, 1.98157783, 2.03580442, 1.36875058, 1.72104092]), 'locations': array([ 2,  1,  3,  1, 10,  2,  0,  0,  1,  5,  1, 63, 69,  3,  9,  3,  1,
        1,  1,  2, 35,  2,  2,  2,  0,  0,  3,  2,  2,  2,  7,  1,  5,  2,
       58,  4,  1,  1, 33,  3,  2, 41,  1,  0,  3,  3,  1,  1,  1,  0,  2,
        0,  6,  5, 60,  4,  2,  3, 62,  6, 24,  1,  2,  0,  6,  7,  2,  1,
        2,  1,  2,  2,  3,  6,  2,  9,  1,  3,  2,  2,  3,  3,  2,  2,  4,
        1,  5,  4,  2,  2,  1, 40,  4,  2,  1,  2,  1,  7,  1,  0,  1,  0,
        5,  3,  3,  2,  4,  4,  1,  7,  4,  4, 66,  2,  8,  6,  1,  2,  2,
        4,  0,  2,  2,  1,  2,  0,  7,  5,  0,  1,  1,  2,  3,  2,  3,  0,
        1,  7,  1,  1,  5,  3,  1,  4,  0,  3,  0, 10,  7,  1,  1,  1,  3,
        4,  3,  2,  1,  6,  1,  2,  2,  1, 12,  1,  2, 48,  2,  2,  1,  1,
        4,  9,  4,  2,  1,  2,  1,  1,  8,  2,  0,  0,  2,  2,  5,  5,  2,
        2,  1,  0,  6,  1,  3,  0,  3,  4,  0,  4,  2,  2])}, {'ts_index': 165, 'loc': 0, 'gap': 0.9439323272283441, 'distances': array([0.66025129, 0.53211913, 0.56348388, 1.29052929, 0.5157705 ,
       2.56705454, 0.57618983, 0.44209158, 0.98277825, 2.71899567,
       0.55591933, 1.69256508, 0.50458583, 0.29451025, 2.22983746,
       0.71331196, 0.54924442, 0.52533058, 0.50433096, 2.51727988,
       0.84515454, 0.47781096, 0.52776604, 0.37791704, 0.43673371,
       0.44018113, 0.59163333, 0.41252292, 0.45320883, 0.        ,
       0.45476963, 0.25232467, 0.94600779, 0.27694963]), 'delta_distances': array([1.34598183, 1.30554683, 1.45915892, 2.56924508, 1.57382442,
       2.38527025, 1.42760942, 1.30670033, 2.013149  , 3.19571867,
       1.48416475, 2.47960692, 1.24029992, 1.01974625, 2.58138433,
       1.24133592, 1.3328605 , 1.26065592, 1.30225583, 2.72678033,
       1.75859633, 1.38077758, 1.30769842, 1.07725767, 1.00026433,
       0.986336  , 1.62146033, 1.43710525, 1.27252933, 0.        ,
       1.24437658, 0.84828792, 1.98253175, 0.93396275]), 'locations': array([17, 21,  5,  3,  2, 43,  3,  2,  1, 33,  9,  0,  3,  4, 28, 10, 11,
       10,  3,  0,  7,  3,  1,  4,  6,  9,  2,  5, 13,  0,  9,  3,  4, 14])}], 'clusters': array([1, 1, 1, 1, 2, 1, 2, 1, 1, 1, 1, 2, 0, 1, 1, 1, 1, 1, 2, 1, 0, 1,
       1, 1, 2, 2, 1, 1, 1, 1, 1, 1, 1, 1, 2, 1, 1, 1, 0, 1, 1, 2, 1, 1,
       1, 1, 1, 1, 1, 1, 1, 0, 1, 1, 2, 1, 1, 1, 2, 1, 0, 2, 1, 1, 1, 1,
       1, 1, 1, 1, 1, 1, 1, 2, 1, 1, 1, 1, 1, 1, 1, 2, 2, 1, 1, 1, 1, 1,
       1, 1, 1, 0, 1, 1, 1, 1, 1, 1, 2, 1, 1, 2, 1, 1, 1, 1, 1, 1, 1, 1,
       1, 1, 2, 1, 1, 1, 1, 1, 1, 1, 2, 2, 1, 1, 1, 1, 1, 1, 2, 1, 1, 1,
       1, 1, 1, 2, 1, 1, 1, 1, 1, 1, 1, 1, 2, 1, 1, 1, 1, 1, 1, 1, 1, 2,
       1, 1, 1, 1, 1, 1, 1, 1, 1, 1, 1, 2, 1, 1, 1, 1, 1, 2, 1, 1, 1, 1,
       1, 1, 1, 1, 1, 2, 1, 1, 1, 1, 2, 1, 1, 1, 1, 1, 1, 2, 1, 1, 1, 1,
       1, 1]), 'time': 32.699700593948364}}, 'ED': {24: {'RI': 0.5481909547738694, 'num_clusters': 3, 'uShapelets': [{'ts_index': 80, 'loc': 2, 'gap': 0.04176632467638547, 'distances': array([0.19796897, 0.24662268, 0.23470229, 0.2021812 , 0.2973536 ,
       0.19547222, 0.27278801, 0.24378043, 0.22670017, 0.20645321,
       0.24111435, 0.34251369, 0.32965615, 0.2202655 , 0.22577226,
       0.22406832, 0.24233063, 0.26585377, 0.30064966, 0.23806006,
       0.30601156, 0.19530391, 0.23080686, 0.18059705, 0.2950224 ,
       0.31264459, 0.24041879, 0.17954622, 0.1930911 , 0.21032453,
       0.27090595, 0.25006351, 0.18809584, 0.2669806 , 0.32920448,
       0.1593448 , 0.26108791, 0.21337834, 0.31477074, 0.21746088,
       0.20790108, 0.35141442, 0.22103034, 0.2542193 , 0.21782956,
       0.16950546, 0.27925276, 0.23113688, 0.21208054, 0.27462743,
       0.20091992, 0.30097919, 0.1887049 , 0.2267945 , 0.34631394,
       0.13784614, 0.20940215, 0.2239809 , 0.34436631, 0.20346684,
       0.28607936, 0.30087169, 0.24072457, 0.21015354, 0.1878125 ,
       0.20179409, 0.23675947, 0.25678073, 0.22641431, 0.212048  ,
       0.20880014, 0.20385762, 0.21683835, 0.24992488, 0.20093076,
       0.23719344, 0.210372  , 0.22479115, 0.21843707, 0.20688562,
       0.        , 0.2929162 , 0.34594233, 0.212641  , 0.18616721,
       0.22576643, 0.20398633, 0.23630442, 0.21832016, 0.24879139,
       0.23978737, 0.32614246, 0.23545809, 0.22391572, 0.24892474,
       0.16961392, 0.20608127, 0.17974004, 0.27135917, 0.19083933,
       0.23734418, 0.29358056, 0.20252653, 0.24131911, 0.16983964,
       0.24546597, 0.20662124, 0.17357198, 0.23612029, 0.23371163,
       0.22090339, 0.20589636, 0.32232001, 0.17172428, 0.1985289 ,
       0.21326938, 0.18302139, 0.20570675, 0.18354008, 0.19996927,
       0.32766671, 0.29497535, 0.26961124, 0.23551032, 0.22972985,
       0.29613571, 0.23758572, 0.26963981, 0.30226153, 0.24585648,
       0.20083909, 0.12734881, 0.15730003, 0.18454711, 0.21052998,
       0.28226539, 0.279546  , 0.21303864, 0.25774698, 0.24765647,
       0.19483122, 0.21030325, 0.21894382, 0.20789237, 0.33620371,
       0.18403994, 0.21129769, 0.22064948, 0.2472072 , 0.24972425,
       0.20753286, 0.2337111 , 0.20021007, 0.35406732, 0.18564524,
       0.20223198, 0.22878938, 0.19610394, 0.18822274, 0.23343486,
       0.19902316, 0.1964531 , 0.24111915, 0.24214974, 0.29909358,
       0.31906121, 0.24443635, 0.21171901, 0.21670375, 0.19471115,
       0.22338874, 0.28576801, 0.23486708, 0.23162296, 0.25657147,
       0.24425745, 0.20503346, 0.2602037 , 0.23150634, 0.24339657,
       0.22681252, 0.31026526, 0.15715727, 0.21623336, 0.19724218,
       0.17447571, 0.27685702, 0.18983719, 0.18632672, 0.23376481,
       0.21826245, 0.25585178, 0.17606334, 0.33982792, 0.22586736,
       0.21838758, 0.23774562, 0.23509484, 0.21750409, 0.22542797]), 'delta_distances': array([0., 0., 0., 0., 0., 0., 0., 0., 0., 0., 0., 0., 0., 0., 0., 0., 0.,
       0., 0., 0., 0., 0., 0., 0., 0., 0., 0., 0., 0., 0., 0., 0., 0., 0.,
       0., 0., 0., 0., 0., 0., 0., 0., 0., 0., 0., 0., 0., 0., 0., 0., 0.,
       0., 0., 0., 0., 0., 0., 0., 0., 0., 0., 0., 0., 0., 0., 0., 0., 0.,
       0., 0., 0., 0., 0., 0., 0., 0., 0., 0., 0., 0., 0., 0., 0., 0., 0.,
       0., 0., 0., 0., 0., 0., 0., 0., 0., 0., 0., 0., 0., 0., 0., 0., 0.,
       0., 0., 0., 0., 0., 0., 0., 0., 0., 0., 0., 0., 0., 0., 0., 0., 0.,
       0., 0., 0., 0., 0., 0., 0., 0., 0., 0., 0., 0., 0., 0., 0., 0., 0.,
       0., 0., 0., 0., 0., 0., 0., 0., 0., 0., 0., 0., 0., 0., 0., 0., 0.,
       0., 0., 0., 0., 0., 0., 0., 0., 0., 0., 0., 0., 0., 0., 0., 0., 0.,
       0., 0., 0., 0., 0., 0., 0., 0., 0., 0., 0., 0., 0., 0., 0., 0., 0.,
       0., 0., 0., 0., 0., 0., 0., 0., 0., 0., 0., 0., 0.]), 'locations': array([ 2,  0,  3,  0, 11,  2,  0,  0,  0,  4,  0, 63, 70,  2,  9,  2,  0,
        1,  0,  0, 34,  2,  1,  2,  0, 65,  3,  1,  1,  1,  7,  1,  5,  1,
       66,  3,  0,  0, 33,  5,  2, 41,  0,  0,  2,  2,  1,  0,  1,  0,  1,
        0,  5,  4, 64,  3,  2,  2, 62,  5, 22,  1,  2,  0,  6,  6,  2,  1,
        1,  1,  1,  1,  2,  2,  1,  2,  1,  2,  1,  3,  2,  2, 60,  2,  3,
        1,  3,  3,  1,  1,  0, 39,  5,  1,  0,  1,  1,  6,  0,  1,  3, 64,
        4,  1,  2,  1,  4,  3,  1,  7,  4,  3, 66,  1,  7,  0,  1,  2,  2,
        3, 63,  2,  2,  0,  2,  0,  7,  4,  0,  1,  1,  1,  2,  2,  2,  0,
        1,  2,  0,  2,  5,  2,  1,  5,  0,  3,  1,  0,  2,  1,  1,  1,  2,
        4,  2,  2,  0,  5,  1,  1,  2,  0,  4,  2,  2, 48,  2,  2,  2,  1,
        2,  0,  4,  1,  0,  0,  2,  0,  2,  2,  0, 45,  2,  0,  5,  4,  1,
        2,  1,  0,  5,  0,  3,  8,  2,  3,  0,  3,  1,  1])}, {'ts_index': 128, 'loc': 8, 'gap': 0.09528721725019446, 'distances': array([0.15462653, 0.17090041, 0.24049618, 0.19492084, 0.3356287 ,
       0.16578287, 0.13448522, 0.19494455, 0.34113405, 0.13575006,
       0.13842103, 0.30673008, 0.15259859, 0.12776097, 0.30411204,
       0.17876331, 0.13035313, 0.12778532, 0.3461155 , 0.16536336,
       0.18510676, 0.13022349, 0.15015898, 0.10324321, 0.        ,
       0.17860853, 0.16149053, 0.15536549, 0.12807176, 0.11735776,
       0.14619298, 0.16484948, 0.14061245, 0.10573142]), 'delta_distances': array([0., 0., 0., 0., 0., 0., 0., 0., 0., 0., 0., 0., 0., 0., 0., 0., 0.,
       0., 0., 0., 0., 0., 0., 0., 0., 0., 0., 0., 0., 0., 0., 0., 0., 0.]), 'locations': array([17,  0,  6,  1, 41,  1,  3,  4, 34,  9,  8, 65,  0,  1, 27,  8,  9,
        2, 51,  2,  1,  7,  7,  3,  8,  4,  4,  3, 13,  5,  0,  9,  2, 11])}], 'clusters': array([1, 1, 1, 1, 2, 1, 1, 1, 1, 1, 1, 2, 0, 1, 1, 1, 1, 1, 2, 1, 0, 1,
       1, 1, 2, 2, 1, 1, 1, 1, 1, 1, 1, 1, 2, 1, 1, 1, 0, 1, 1, 2, 1, 1,
       1, 1, 2, 1, 1, 1, 1, 0, 1, 1, 2, 1, 1, 1, 2, 1, 0, 2, 1, 1, 1, 1,
       1, 1, 1, 1, 1, 1, 1, 1, 1, 1, 1, 1, 1, 1, 1, 2, 2, 1, 1, 1, 1, 1,
       1, 1, 1, 0, 1, 1, 1, 1, 1, 1, 1, 1, 1, 2, 1, 1, 1, 1, 1, 1, 1, 1,
       1, 1, 2, 1, 1, 1, 1, 1, 1, 1, 2, 2, 1, 1, 1, 2, 1, 1, 2, 1, 1, 1,
       1, 1, 1, 2, 2, 1, 1, 1, 1, 1, 1, 1, 2, 1, 1, 1, 1, 1, 1, 1, 1, 2,
       1, 1, 1, 1, 1, 1, 1, 1, 1, 1, 2, 2, 1, 1, 1, 1, 1, 2, 1, 1, 1, 1,
       1, 1, 1, 1, 1, 2, 1, 1, 1, 1, 1, 1, 1, 1, 1, 1, 1, 2, 1, 1, 1, 1,
       1, 1]), 'time': 23.750738859176636}}}