{'FOTS': {5: {'RI': 0.4607035175879397, 'num_clusters': 9, 'uShapelets': [{'ts_index': 3, 'loc': 55, 'gap': 0.08085209771189661, 'distances': array([0.35106588, 0.34981238, 0.14609386, 0.        , 0.42243204,
       0.16204935, 0.21715178, 0.35127941, 0.35543096, 0.27538659,
       0.32693141, 0.31895811, 0.34088396, 0.25047992, 0.38718623,
       0.24316792, 0.0777964 , 0.36101678, 0.34323581, 0.3783122 ,
       0.36124908, 0.10753088, 0.13957193, 0.3454536 , 0.19371423,
       0.36090224, 0.3320647 , 0.1921728 , 0.39483516, 0.37532857,
       0.1917791 , 0.4386177 , 0.36125899, 0.43034457, 0.34428632,
       0.1839551 , 0.32951765, 0.39168348, 0.23176303, 0.36524084,
       0.26704263, 0.27421577, 0.41590369, 0.24335736, 0.32587227,
       0.44224616, 0.36039464, 0.1598057 , 0.41966862, 0.37036892,
       0.38727736, 0.38159189, 0.38301405, 0.29031072, 0.39713536,
       0.44855735, 0.36245252, 0.3538176 , 0.31793476, 0.41645585,
       0.30959596, 0.32577555, 0.3187237 , 0.25426302, 0.37023885,
       0.36289342, 0.35715026, 0.40244614, 0.2740591 , 0.32248236,
       0.31096684, 0.3260968 , 0.30990066, 0.41700782, 0.1733329 ,
       0.23772579, 0.3975394 , 0.40536238, 0.35013977, 0.43834791,
       0.30911468, 0.25159048, 0.19810344, 0.31583687, 0.31268894,
       0.1206807 , 0.37312107, 0.3610882 , 0.39089504, 0.38821797,
       0.36702407, 0.3894747 , 0.43802168, 0.13866323, 0.27199542,
       0.39991419, 0.1475295 , 0.40542743, 0.34168645, 0.231329  ,
       0.19496447, 0.36218366, 0.31431164, 0.27992397, 0.37363142,
       0.34495023, 0.23217517, 0.38734053, 0.42044935, 0.22844331,
       0.3764946 , 0.27090315, 0.41453518, 0.39116206, 0.28542371,
       0.38431158, 0.4293049 , 0.35313007, 0.37754729, 0.42995904,
       0.2983009 , 0.36308426, 0.33770418, 0.34524193, 0.39632485,
       0.22807671, 0.33169427, 0.43091559, 0.14931223, 0.34502084,
       0.25404879, 0.20843903, 0.39632849, 0.32767948, 0.26234371,
       0.37264229, 0.3344877 , 0.39772587, 0.35239716, 0.36853537,
       0.14603109, 0.36839421, 0.4135498 , 0.4218906 , 0.21894263,
       0.44285175, 0.17693111, 0.30178068, 0.24362328, 0.35004263,
       0.29515006, 0.34002231, 0.42157623, 0.39749868, 0.37408678,
       0.40876119, 0.14610915, 0.32288099, 0.35340001, 0.24377901,
       0.27443578, 0.39361266, 0.35587113, 0.36721999, 0.37010054,
       0.20191133, 0.39926845, 0.37565279, 0.41592786, 0.36029574,
       0.30703891, 0.2595955 , 0.31887643, 0.10920426, 0.35493621,
       0.40856673, 0.31506572, 0.37682462, 0.35382309, 0.42135357,
       0.38178329, 0.34073907, 0.3928294 , 0.26671438, 0.27381455,
       0.26952431, 0.40805206, 0.4090705 , 0.38731229, 0.36572634,
       0.17234   , 0.18161545, 0.21943124, 0.41708032, 0.39978449,
       0.37313421, 0.39919961, 0.30119962, 0.42167683, 0.26682228]), 'delta_distances': array([0., 0., 0., 0., 0., 0., 0., 0., 0., 0., 0., 0., 0., 0., 0., 0., 0.,
       0., 0., 0., 0., 0., 0., 0., 0., 0., 0., 0., 0., 0., 0., 0., 0., 0.,
       0., 0., 0., 0., 0., 0., 0., 0., 0., 0., 0., 0., 0., 0., 0., 0., 0.,
       0., 0., 0., 0., 0., 0., 0., 0., 0., 0., 0., 0., 0., 0., 0., 0., 0.,
       0., 0., 0., 0., 0., 0., 0., 0., 0., 0., 0., 0., 0., 0., 0., 0., 0.,
       0., 0., 0., 0., 0., 0., 0., 0., 0., 0., 0., 0., 0., 0., 0., 0., 0.,
       0., 0., 0., 0., 0., 0., 0., 0., 0., 0., 0., 0., 0., 0., 0., 0., 0.,
       0., 0., 0., 0., 0., 0., 0., 0., 0., 0., 0., 0., 0., 0., 0., 0., 0.,
       0., 0., 0., 0., 0., 0., 0., 0., 0., 0., 0., 0., 0., 0., 0., 0., 0.,
       0., 0., 0., 0., 0., 0., 0., 0., 0., 0., 0., 0., 0., 0., 0., 0., 0.,
       0., 0., 0., 0., 0., 0., 0., 0., 0., 0., 0., 0., 0., 0., 0., 0., 0.,
       0., 0., 0., 0., 0., 0., 0., 0., 0., 0., 0., 0., 0.]), 'locations': array([80, 24, 14, 55, 83,  2,  6, 61, 90, 77, 25, 55, 12, 29, 24, 78, 50,
       69, 51,  0, 84, 48, 19, 75, 22, 47, 67, 62, 19, 20, 31, 90, 15, 23,
       20, 34, 18, 44, 81, 39, 70, 65, 71, 39, 54, 22, 83, 40, 63, 19, 58,
        6, 59, 78, 20, 77,  4, 19, 26,  5, 53, 52, 17,  0, 11, 65, 66, 56,
       65, 34, 32, 64, 16, 21, 73, 72, 58, 58, 17, 22, 51, 20, 51, 41,  8,
       49, 75, 65, 85, 13,  1, 76, 87, 43, 73, 54, 16, 35,  5, 18, 22, 84,
       56, 15,  7, 34, 49, 31, 32, 58, 36, 53, 57, 62, 42, 51, 62, 81, 55,
       45, 84, 65,  7,  8,  2, 12, 30, 50, 25, 73, 78, 14, 82, 56, 58,  2,
       41, 69, 33, 36,  6, 17, 26, 74, 22, 84, 57, 10, 10, 59, 47, 70, 46,
       15, 27, 21, 14, 59,  3, 25, 40, 24, 48, 65, 27, 13, 15, 14, 14, 57,
       59, 63, 67, 45, 55, 18, 13, 83,  7, 78, 11, 52, 40, 89, 69, 54, 43,
       57,  3,  8, 41, 29, 35, 69, 32, 73, 35, 59,  6, 10])}, {'ts_index': 117, 'loc': 61, 'gap': 0.07503990393205448, 'distances': array([0.41892653, 0.31522093, 0.39771678, 0.33215431, 0.30785931,
       0.07529657, 0.26521451, 0.33806962, 0.24074843, 0.31250958,
       0.39403395, 0.41636867, 0.32763878, 0.39813326, 0.29531926,
       0.27700661, 0.40697223, 0.15305547, 0.36512453, 0.29504902,
       0.18746913, 0.28580076, 0.329539  , 0.35825018, 0.34680824,
       0.44563352, 0.40139347, 0.15844777, 0.38368882, 0.30748653,
       0.36699412, 0.32455266, 0.2404263 , 0.37374497, 0.41041524,
       0.34191984, 0.14277262, 0.32925393, 0.28084334, 0.11424725,
       0.26373366, 0.38986561, 0.30615204, 0.13155559, 0.39263544,
       0.38754833, 0.40354166, 0.34391621, 0.34196504, 0.34409401,
       0.42026384, 0.21909308, 0.14499913, 0.42646444, 0.15222636,
       0.25526087, 0.26998994, 0.36908282, 0.32435145, 0.22572662,
       0.2626842 , 0.33005843, 0.20620802, 0.36961214, 0.26918808,
       0.16255564, 0.14021025, 0.46374141, 0.23758797, 0.40632031,
       0.34607824, 0.44184539, 0.34385958, 0.24359633, 0.37609388,
       0.25919166, 0.31673757, 0.37090257, 0.37158849, 0.37349962,
       0.40770953, 0.34424166, 0.40758123, 0.34488518, 0.32108507,
       0.08652196, 0.2849109 , 0.31841191, 0.21052184, 0.22358317,
       0.27184797, 0.3250371 , 0.26961721, 0.39796735, 0.        ,
       0.40802885, 0.31770874, 0.37112492, 0.3211587 , 0.36911304,
       0.20895873, 0.36457952, 0.30843073, 0.38388172, 0.26709684,
       0.27074685, 0.35298627, 0.11681688, 0.46475782, 0.38043693,
       0.39603327, 0.31598961, 0.3106738 , 0.44578061, 0.35098613,
       0.29532845, 0.36562367, 0.30376717, 0.37133703, 0.41265162,
       0.25085904, 0.37924514, 0.37695517, 0.24196344, 0.28786275,
       0.19481644, 0.4477446 , 0.37365366, 0.26394761, 0.34065373,
       0.21601277, 0.30011742, 0.1524863 , 0.19546379, 0.16853151,
       0.29473055, 0.27544983, 0.26555764, 0.22935881, 0.40611495,
       0.23420561, 0.34730367, 0.19377979, 0.18790003, 0.30220611,
       0.15036786, 0.35109758, 0.3310146 , 0.41503914, 0.41040474,
       0.18939708, 0.31364233, 0.36668091, 0.28031212, 0.14438045,
       0.20166785, 0.41362512, 0.29369227, 0.38934211, 0.37743705,
       0.39741089, 0.33484477, 0.30509165, 0.24970012, 0.42320115]), 'delta_distances': array([0., 0., 0., 0., 0., 0., 0., 0., 0., 0., 0., 0., 0., 0., 0., 0., 0.,
       0., 0., 0., 0., 0., 0., 0., 0., 0., 0., 0., 0., 0., 0., 0., 0., 0.,
       0., 0., 0., 0., 0., 0., 0., 0., 0., 0., 0., 0., 0., 0., 0., 0., 0.,
       0., 0., 0., 0., 0., 0., 0., 0., 0., 0., 0., 0., 0., 0., 0., 0., 0.,
       0., 0., 0., 0., 0., 0., 0., 0., 0., 0., 0., 0., 0., 0., 0., 0., 0.,
       0., 0., 0., 0., 0., 0., 0., 0., 0., 0., 0., 0., 0., 0., 0., 0., 0.,
       0., 0., 0., 0., 0., 0., 0., 0., 0., 0., 0., 0., 0., 0., 0., 0., 0.,
       0., 0., 0., 0., 0., 0., 0., 0., 0., 0., 0., 0., 0., 0., 0., 0., 0.,
       0., 0., 0., 0., 0., 0., 0., 0., 0., 0., 0., 0., 0., 0., 0., 0., 0.,
       0., 0., 0., 0., 0., 0., 0., 0., 0., 0., 0., 0.]), 'locations': array([26, 68, 70, 61, 62, 40,  6, 73, 11,  8, 15, 57, 57, 40,  0,  1,  3,
       43, 67, 86, 69, 64,  5, 37, 29,  9,  3,  6, 70, 10, 30,  7, 29,  9,
       48, 34, 79, 89, 62, 62, 37, 80, 75, 16,  2,  0, 73, 14, 68,  9, 64,
       89, 14, 30, 70, 45, 27, 75, 50, 42, 17, 70, 18, 80, 82, 43, 48, 78,
       45, 76, 52, 24, 36, 51, 31, 74,  9, 61,  5, 90, 44, 46, 79, 31, 76,
       66, 76, 42, 18, 47, 47, 32,  5, 80, 61,  6, 21,  2,  8, 62, 78, 87,
       32, 44, 17, 11, 90, 47,  9,  7,  7, 13, 26, 76, 50, 61,  6, 84, 55,
       87, 60, 68, 52, 24, 22,  3, 88,  0, 38,  2, 52, 67, 39, 54,  6,  6,
        9,  6, 51, 53,  5, 47, 77, 13, 40, 52, 61, 66, 33, 87, 44, 35, 70,
       78, 16, 62, 86, 65, 45,  8,  4, 24, 84, 73,  7])}, {'ts_index': 103, 'loc': 74, 'gap': 0.0872080243581026, 'distances': array([0.2818716 , 0.22215346, 0.27193659, 0.31579133, 0.14928772,
       0.24389577, 0.28220827, 0.36268637, 0.28029233, 0.317578  ,
       0.2183653 , 0.26533375, 0.20712991, 0.19018323, 0.30445991,
       0.33719968, 0.16829794, 0.39583662, 0.17616796, 0.17905473,
       0.25922785, 0.29961044, 0.29797045, 0.383843  , 0.3904385 ,
       0.19026971, 0.34660035, 0.22932467, 0.33205639, 0.21056083,
       0.10893513, 0.34850378, 0.31873288, 0.37321708, 0.33607276,
       0.30642019, 0.34554392, 0.25741432, 0.36128524, 0.17015264,
       0.22908067, 0.34676333, 0.34502236, 0.11251613, 0.20097375,
       0.3843023 , 0.40646084, 0.37691074, 0.33867553, 0.20848337,
       0.31865216, 0.3947009 , 0.18208713, 0.38773949, 0.14803048,
       0.26721731, 0.34309025, 0.3372393 , 0.38391844, 0.30055301,
       0.31496606, 0.33420601, 0.38854454, 0.27044439, 0.37735265,
       0.31501229, 0.28236255, 0.42290579, 0.35979694, 0.        ,
       0.13963742, 0.34200477, 0.39924636, 0.39421161, 0.29380463,
       0.13315551, 0.31632003, 0.2851411 , 0.27880219, 0.26644926,
       0.29584659, 0.09954385, 0.40676873, 0.2595567 , 0.16498355,
       0.26245484, 0.32561333, 0.41056669, 0.32472177, 0.13002449,
       0.09232022, 0.11344857, 0.41411352, 0.27879925, 0.24380287,
       0.40402838, 0.31286338, 0.32564599, 0.32496179, 0.13046835,
       0.17105514, 0.22574002, 0.23484661, 0.13160697, 0.37571157,
       0.23646982, 0.40041149, 0.30221903, 0.13590483, 0.32225552,
       0.35025268, 0.43897809, 0.13455315, 0.2769496 , 0.14476393,
       0.1310767 , 0.35166539, 0.36441514, 0.33368339, 0.34894441,
       0.45289335, 0.37770306, 0.22500873, 0.39551083, 0.26117278,
       0.28814851, 0.4250273 , 0.33822081, 0.40434087, 0.29715178,
       0.15752403, 0.30771295, 0.34399574, 0.38281209, 0.13321725,
       0.36539632]), 'delta_distances': array([0., 0., 0., 0., 0., 0., 0., 0., 0., 0., 0., 0., 0., 0., 0., 0., 0.,
       0., 0., 0., 0., 0., 0., 0., 0., 0., 0., 0., 0., 0., 0., 0., 0., 0.,
       0., 0., 0., 0., 0., 0., 0., 0., 0., 0., 0., 0., 0., 0., 0., 0., 0.,
       0., 0., 0., 0., 0., 0., 0., 0., 0., 0., 0., 0., 0., 0., 0., 0., 0.,
       0., 0., 0., 0., 0., 0., 0., 0., 0., 0., 0., 0., 0., 0., 0., 0., 0.,
       0., 0., 0., 0., 0., 0., 0., 0., 0., 0., 0., 0., 0., 0., 0., 0., 0.,
       0., 0., 0., 0., 0., 0., 0., 0., 0., 0., 0., 0., 0., 0., 0., 0., 0.,
       0., 0., 0., 0., 0., 0., 0., 0., 0., 0., 0., 0., 0., 0., 0., 0., 0.]), 'locations': array([ 3, 19, 73,  3, 17, 56, 65, 30, 90, 36, 56, 84, 36, 52, 45, 34, 74,
       24, 44, 44, 70, 51, 34, 64, 61,  4, 37, 58, 46,  6, 10, 86, 51, 82,
       23, 10, 45, 54, 80, 82, 27, 36, 90, 32, 31, 44, 13, 41, 45, 84, 88,
        2,  7, 35, 33,  3, 59, 34, 51, 86, 44, 40,  6,  5, 82, 69, 44, 73,
       61, 74, 72, 20,  6, 45,  9, 87, 86, 49, 11, 19, 38, 73, 58,  6, 64,
       54, 36, 10,  1, 60, 75, 21, 33,  7, 43, 13, 71,  1, 23, 37, 39, 20,
       39, 74, 84, 31, 12, 86, 72, 33, 17, 29, 31, 48, 48, 73, 77, 56, 24,
       79, 31, 22, 28, 24, 46, 47, 46, 65, 13, 75, 76, 27, 87, 11, 64,  7])}, {'ts_index': 18, 'loc': 36, 'gap': 0.07326458050037615, 'distances': array([0.34041307, 0.23770486, 0.2466049 , 0.39865033, 0.36232574,
       0.35949987, 0.37262674, 0.33969087, 0.29723335, 0.06211576,
       0.24013664, 0.        , 0.11424413, 0.26893545, 0.29261417,
       0.37505142, 0.17385237, 0.31794454, 0.19128542, 0.40628897,
       0.38111238, 0.14719871, 0.31440761, 0.10965858, 0.37653438,
       0.20479581, 0.29243823, 0.28729129, 0.3540346 , 0.37663755,
       0.33931295, 0.32916688, 0.30889318, 0.39795803, 0.27631425,
       0.29793509, 0.41030504, 0.20642622, 0.37304102, 0.41068992,
       0.28467877, 0.33181471, 0.11896507, 0.26500231, 0.37702541,
       0.36162456, 0.29942728, 0.37445622, 0.31248455, 0.36719938,
       0.32358753, 0.32863964, 0.348697  , 0.35710688, 0.18235427,
       0.36746823, 0.41474783, 0.21965571, 0.40883591, 0.33740242,
       0.32344673, 0.3775722 , 0.37498333, 0.2261233 , 0.31280557,
       0.27872992, 0.25274829, 0.25286696, 0.35210355, 0.32804634,
       0.18384981, 0.22402746, 0.34725368, 0.29814501, 0.32432587,
       0.3632968 , 0.27504856, 0.16622413, 0.3946629 , 0.32592396,
       0.36810699, 0.40738419, 0.3204659 , 0.23571684, 0.32339872,
       0.12892343, 0.3612879 , 0.33587818, 0.33215165, 0.38237466,
       0.42375163, 0.32518609, 0.35470808, 0.38765147, 0.31311077,
       0.36704108, 0.41723651, 0.37353612, 0.26927413, 0.40374993,
       0.15068691, 0.32575722, 0.42396927, 0.37273184, 0.38426226,
       0.22610469, 0.36010749, 0.34748412, 0.34735544, 0.33368715]), 'delta_distances': array([0., 0., 0., 0., 0., 0., 0., 0., 0., 0., 0., 0., 0., 0., 0., 0., 0.,
       0., 0., 0., 0., 0., 0., 0., 0., 0., 0., 0., 0., 0., 0., 0., 0., 0.,
       0., 0., 0., 0., 0., 0., 0., 0., 0., 0., 0., 0., 0., 0., 0., 0., 0.,
       0., 0., 0., 0., 0., 0., 0., 0., 0., 0., 0., 0., 0., 0., 0., 0., 0.,
       0., 0., 0., 0., 0., 0., 0., 0., 0., 0., 0., 0., 0., 0., 0., 0., 0.,
       0., 0., 0., 0., 0., 0., 0., 0., 0., 0., 0., 0., 0., 0., 0., 0., 0.,
       0., 0., 0., 0., 0., 0., 0., 0.]), 'locations': array([ 3, 19, 73,  3, 56, 65, 30, 90, 36, 56, 84, 36,  7, 24, 28, 24, 70,
       69, 34, 57, 77,  4,  3, 58, 46,  6,  8, 36, 82, 23, 10, 45, 38, 80,
       27, 36, 30, 31, 44, 77, 64, 90, 84, 88,  2, 77,  3, 59, 45, 51, 86,
       44,  3, 88,  5, 82,  5, 44, 73, 61, 20, 34,  4,  9, 33, 49, 11, 19,
       38, 47,  6, 42, 36, 10,  1, 33,  7, 43, 13, 26, 11, 23, 77, 39, 84,
       31, 50, 86,  4, 17, 53,  2, 77, 52, 24, 79, 81, 21, 28, 24,  4, 47,
       47, 65,  2, 75, 12, 87, 11, 40])}, {'ts_index': 92, 'loc': 19, 'gap': 0.07135351687460065, 'distances': array([0.31118827, 0.30791194, 0.17947312, 0.42546048, 0.37550138,
       0.12510449, 0.30583651, 0.34868571, 0.29592376, 0.34686782,
       0.3639646 , 0.29486502, 0.12626161, 0.37325547, 0.29352814,
       0.33914288, 0.34056375, 0.35530445, 0.39217032, 0.3329114 ,
       0.29225001, 0.35301431, 0.18024331, 0.2841955 , 0.39636385,
       0.28572406, 0.23799999, 0.4221538 , 0.30660054, 0.35033338,
       0.17386799, 0.36668975, 0.33391594, 0.17182176, 0.46924436,
       0.3153743 , 0.33802174, 0.32688282, 0.35357289, 0.35482145,
       0.18567455, 0.41875097, 0.31377777, 0.        , 0.18435392,
       0.3995109 , 0.40729794, 0.44521514, 0.29428379, 0.14245996,
       0.29736779, 0.32059902, 0.18656887, 0.32843968, 0.26126543,
       0.37179955, 0.39998828, 0.25572735, 0.34106983, 0.30355013,
       0.42894194, 0.34116878, 0.41329639, 0.40888296, 0.2985849 ,
       0.35054025, 0.2573373 , 0.38955806, 0.3810754 , 0.2829053 ,
       0.37814493, 0.38753311, 0.25694285, 0.39280529, 0.34928853,
       0.34692413, 0.36257032, 0.37824202, 0.39417991, 0.33608593,
       0.38720263, 0.24228264, 0.32758213, 0.24038738, 0.08255696,
       0.22662836, 0.4077654 , 0.29561382, 0.37639305, 0.1938748 ]), 'delta_distances': array([0., 0., 0., 0., 0., 0., 0., 0., 0., 0., 0., 0., 0., 0., 0., 0., 0.,
       0., 0., 0., 0., 0., 0., 0., 0., 0., 0., 0., 0., 0., 0., 0., 0., 0.,
       0., 0., 0., 0., 0., 0., 0., 0., 0., 0., 0., 0., 0., 0., 0., 0., 0.,
       0., 0., 0., 0., 0., 0., 0., 0., 0., 0., 0., 0., 0., 0., 0., 0., 0.,
       0., 0., 0., 0., 0., 0., 0., 0., 0., 0., 0., 0., 0., 0., 0., 0., 0.,
       0., 0., 0., 0., 0.]), 'locations': array([10, 54, 57, 10, 40, 37, 54, 16, 57, 79, 40, 39, 76, 45, 38, 61, 71,
       20, 75, 51, 90, 48, 48, 66, 38, 52, 62, 10, 66, 48,  3, 46, 13, 10,
       44, 52, 72, 53, 15, 61, 68, 44, 53, 19, 51, 26, 80, 45, 44, 16, 81,
       57, 29, 74, 61, 41, 67, 84, 84, 38, 29, 50,  5, 26, 62, 23, 79, 13,
        5, 46, 64, 17, 35, 42, 77, 56, 35, 32, 39, 22,  1, 60,  3, 63, 69,
       13, 22, 52, 13, 79])}, {'ts_index': 129, 'loc': 25, 'gap': 0.06346854287567422, 'distances': array([0.24572631, 0.30910565, 0.36551083, 0.27356495, 0.11689343,
       0.15472933, 0.17388988, 0.17008952, 0.3696665 , 0.2349764 ,
       0.19994492, 0.17740504, 0.18045296, 0.24827065, 0.22394621,
       0.34524888, 0.16401841, 0.30506595, 0.16904209, 0.20486857,
       0.29698968, 0.18367546, 0.20783188, 0.32719673, 0.17782766,
       0.37685922, 0.24933917, 0.09974621, 0.29823612, 0.36705067,
       0.3222325 , 0.29660401, 0.27948086, 0.18565501, 0.28167664,
       0.35735081, 0.16044818, 0.13621011, 0.23989362, 0.38855058,
       0.15804865, 0.27447308, 0.19797693, 0.31143392, 0.25998153,
       0.23234463, 0.        , 0.15693658, 0.09308503, 0.38690119,
       0.3518349 , 0.15654599, 0.31427471, 0.33774787, 0.2501841 ,
       0.41069559, 0.19364199, 0.221389  , 0.18937032, 0.37901797,
       0.25215596, 0.23424924, 0.17205398, 0.25916744, 0.26302896,
       0.24212975, 0.23204459, 0.23954414, 0.35028369, 0.38629683,
       0.33650996, 0.32123971, 0.1798802 ]), 'delta_distances': array([0., 0., 0., 0., 0., 0., 0., 0., 0., 0., 0., 0., 0., 0., 0., 0., 0.,
       0., 0., 0., 0., 0., 0., 0., 0., 0., 0., 0., 0., 0., 0., 0., 0., 0.,
       0., 0., 0., 0., 0., 0., 0., 0., 0., 0., 0., 0., 0., 0., 0., 0., 0.,
       0., 0., 0., 0., 0., 0., 0., 0., 0., 0., 0., 0., 0., 0., 0., 0., 0.,
       0., 0., 0., 0., 0.]), 'locations': array([26, 88, 17, 67,  8, 11, 21, 87, 89, 68, 21, 31, 67, 83, 60, 62, 38,
       20, 68,  1, 30, 86, 15, 52, 86, 45, 23, 71,  0,  2, 61,  8, 45, 14,
       59, 72, 44, 78, 48, 28, 45, 39,  7, 63, 28, 88, 25, 14, 73, 71, 75,
       72, 13, 18, 87, 20, 85, 26, 14, 31,  0, 11, 79,  2, 77, 17, 19, 58,
       26, 12, 10, 88, 75])}, {'ts_index': 180, 'loc': 39, 'gap': 0.08509024000311338, 'distances': array([0.18961926, 0.30078202, 0.15685299, 0.30776932, 0.35536577,
       0.31867875, 0.31973853, 0.28575176, 0.27012602, 0.14244408,
       0.31960126, 0.        , 0.27159557]), 'delta_distances': array([0., 0., 0., 0., 0., 0., 0., 0., 0., 0., 0., 0., 0.]), 'locations': array([49,  5, 74, 48, 71, 79,  7, 10, 40, 83,  4, 39, 82])}, {'ts_index': 97, 'loc': 86, 'gap': 0.07551954790410931, 'distances': array([0.15819819, 0.28869256, 0.27678373, 0.        , 0.27648237,
       0.26010317, 0.31659999, 0.27633013, 0.1745213 ]), 'delta_distances': array([0., 0., 0., 0., 0., 0., 0., 0., 0.]), 'locations': array([69, 49, 30, 86, 11, 71, 12, 36, 26])}, {'ts_index': 70, 'loc': 81, 'gap': 0.07271080432844809, 'distances': array([0.        , 0.16334688, 0.29093198, 0.22384681, 0.31740444,
       0.32014435]), 'delta_distances': array([0., 0., 0., 0., 0., 0.]), 'locations': array([81, 70,  2, 89, 40,  0])}], 'clusters': array([6, 6, 1, 1, 5, 1, 1, 7, 3, 2, 6, 5, 6, 6, 6, 4, 1, 6, 4, 4, 8, 1,
       1, 6, 1, 2, 3, 1, 5, 2, 1, 3, 3, 4, 6, 1, 4, 6, 1, 2, 6, 4, 6, 4,
       6, 4, 3, 1, 7, 2, 6, 6, 2, 6, 5, 6, 2, 6, 6, 3, 5, 6, 6, 3, 2, 2,
       4, 2, 6, 5, 9, 6, 4, 5, 1, 1, 6, 2, 3, 6, 2, 2, 1, 3, 9, 1, 6, 6,
       6, 5, 6, 6, 5, 1, 4, 5, 1, 8, 4, 1, 1, 6, 6, 3, 3, 6, 1, 2, 5, 1,
       0, 2, 4, 3, 6, 5, 6, 2, 6, 6, 3, 6, 4, 2, 3, 1, 4, 6, 1, 6, 6, 1,
       3, 2, 3, 3, 6, 9, 4, 0, 1, 6, 6, 6, 1, 3, 1, 3, 6, 4, 3, 7, 4, 6,
       2, 6, 1, 3, 6, 0, 2, 6, 2, 2, 2, 1, 3, 6, 3, 3, 6, 6, 6, 1, 2, 2,
       6, 2, 6, 6, 7, 5, 2, 4, 8, 5, 2, 2, 5, 5, 1, 1, 1, 4, 3, 6, 6, 6,
       3, 5]), 'time': 627.1982674598694}}, 'UED': {5: {'RI': 0.5131658291457286, 'num_clusters': 3, 'uShapelets': [{'ts_index': 86, 'loc': 4, 'gap': 2.7654595534345763, 'distances': array([ 7.2930536, 17.9336828,  1.2496028,  8.1300432,  9.075086 ,
        3.3287892, 18.5223578, 11.6513692, 14.5818066, 16.3749932,
        7.0255174,  7.1606014, 16.7220452, 18.0366172,  8.0925146,
       12.9322892, 10.5351648,  7.6623864, 13.82937  , 10.6091368,
       10.8875138, 13.473305 , 16.675348 , 10.7201454,  8.0565588,
       10.9231184, 15.4825608, 12.9891126, 12.7085306, 11.4392274,
        9.3584788, 12.4880474,  4.6243184, 11.193751 , 15.541074 ,
       14.4404606, 14.4558094, 10.418835 , 14.5923666,  6.9280184,
       16.502548 , 16.884506 , 10.1807296, 11.1269936,  4.7435196,
        6.9310188,  9.9830348, 14.5604424, 14.2415116, 11.6728242,
        9.683406 ,  7.2549692, 14.4130568, 15.3264902, 15.192706 ,
       11.4030734,  6.3900938, 16.0227886, 17.9527854,  8.0120812,
       11.4065134, 14.0796278, 11.0777028,  6.056143 , 11.3957498,
       13.0036548, 12.965736 , 13.4007438,  9.1250144, 12.3022546,
       13.68698  ,  7.0325792, 10.8535254,  7.573611 ,  8.951677 ,
        7.868442 ,  4.9304578, 12.9785608, 15.3496494,  2.9937478,
        9.4294964, 13.2449972,  8.358586 , 11.8357374,  6.0757788,
        2.6705358,  0.       , 15.9046676, 18.1472886, 16.6584078,
        8.8398714, 10.6566556, 11.2274396, 13.2561674, 18.3118884,
        7.9439618, 15.1768578,  2.4148996,  5.6254916,  6.3600542,
       18.2962048, 17.356254 , 14.522386 ,  9.494075 ,  6.869417 ,
        8.964216 , 12.8637492, 10.534738 , 10.0211872,  5.3250476,
        7.052765 , 16.2363556, 15.7542648, 16.7381178,  5.6598602,
       15.4240422, 13.9822246,  7.8246572,  9.9674152, 14.6912632,
       13.1502098, 18.147662 , 13.4845066,  9.270478 , 14.2251644,
       11.9866046,  6.4684286, 19.3175328,  6.955273 , 11.5643478,
        9.5733732, 11.0275428,  2.7407588,  5.12624  , 13.1989508,
       14.233363 ,  8.191725 , 11.9336406, 17.9271998, 15.3715856,
       14.6911302, 14.7280224, 12.0948772, 12.6784022,  7.6083366,
        4.0976006,  5.9630598,  4.3813988,  2.1513304, 12.188038 ,
       14.7803442, 16.208402 , 12.811645 ,  8.532337 , 12.2161576,
        9.963351 , 13.9783258,  5.2392804,  9.8853464,  8.4548706,
       13.4589052,  9.175819 , 16.382451 , 10.7882138, 14.0910956,
       16.4861376,  9.9955736,  7.8650332,  4.1879314, 16.6740588,
       11.4478026, 11.239724 , 16.0844876, 17.5350758,  9.4550912,
       16.4436006, 10.2493974,  8.4725784, 11.7926038, 19.1869898,
       13.0634812,  8.6343038, 13.5972908,  9.3795258, 11.6319724,
       11.741103 , 14.7146958, 12.631953 ,  5.7425084, 18.03788  ,
        9.7884314, 15.7997076,  6.530329 , 11.3046336, 12.5984798,
       13.452358 , 14.1901918,  8.6527956, 16.816513 ,  4.9392594]), 'delta_distances': array([20.020232 , 29.5611756, 11.1651904, 21.9042472, 26.3244284,
       15.1307684, 30.9800172, 35.2463856, 26.5139012, 30.9212652,
       23.8299504, 23.5585872, 32.0609256, 28.2187532, 21.7202384,
       25.12259  , 25.675436 , 19.3952012, 30.4387444, 27.7762072,
       24.6049352, 28.85973  , 24.6746144, 25.6312276, 25.0307424,
       26.0728436, 36.4196056, 31.2945456, 32.19148  , 35.1100768,
       32.7016692, 29.4669768, 20.0734696, 24.2182872, 26.6939228,
       21.3880256, 24.0698132, 30.0218368, 28.1077004, 21.0532332,
       27.9483228, 29.3288356, 28.820296 , 20.6490176, 20.4643792,
       25.1295432, 23.4998112, 26.6485868, 30.4620124, 30.96962  ,
       26.76548  , 27.23636  , 26.322102 , 27.6927224, 29.6617716,
       24.1384672, 18.1733336, 43.7629748, 25.2361236, 22.1113304,
       23.8427616, 37.8500256, 29.8099388, 20.0353236, 26.113666 ,
       36.9127444, 28.66892  , 23.0498628, 23.2733512, 36.047512 ,
       29.3720312, 20.6913424, 31.5780124, 24.449596 , 19.3721868,
       26.6934224, 20.5316068, 23.8907384, 27.757214 , 15.2620124,
       33.0068764, 30.2251364, 19.0941328, 33.4831316, 22.2883016,
       14.4011796,  0.       , 30.7352592, 26.2717636, 35.2853004,
       25.447864 , 27.9850284, 32.0978392, 29.3302104, 26.8904936,
       21.0351456, 33.2185548,  7.7511044, 20.0554592, 17.2206796,
       27.1161616, 23.6603244, 23.3680456, 26.8029108, 22.76177  ,
       26.013196 , 24.5793352, 23.6431664, 27.2099012, 19.5085532,
       21.3807852, 33.4328384, 26.1041376, 35.028306 , 23.4654228,
       32.6948868, 34.01471  , 20.8869336, 26.6045392, 28.229354 ,
       27.0119052, 36.2137708, 32.7145248, 21.5800272, 27.1564892,
       35.2499792, 19.0002464, 31.1029948, 19.5812   , 31.7787432,
       27.953054 , 32.387124 , 14.0312096, 17.3254252, 26.2684948,
       32.502038 , 27.5662092, 29.5285556, 24.5796424, 29.2865952,
       32.6646176, 24.778056 , 28.868272 , 27.2126808, 26.3164492,
       17.5306884, 20.0292032, 16.7582584,  6.0295524, 27.371686 ,
       23.7223784, 37.7946628, 31.8373812, 26.5071504, 27.6025168,
       26.8777972, 34.2902824, 18.0268068, 23.7486756, 25.7595352,
       24.4049612, 18.5493544, 34.144936 , 27.9334208, 28.3938168,
       29.0241876, 24.1902032, 21.8305472, 17.7546848, 23.7325604,
       32.305896 , 31.9229492, 32.2909544, 31.9375468, 31.659354 ,
       32.0892304, 23.86896  , 29.8343052, 26.6558524, 34.0573676,
       24.3458524, 24.408006 , 24.2687788, 25.9938516, 30.1351588,
       38.5780952, 28.3931516, 24.4682368, 18.2946308, 27.8868272,
       22.9197412, 30.9720592, 21.2536328, 23.2720444, 25.9346152,
       27.364396 , 33.4717568, 28.4198164, 30.75322  , 22.9390492]), 'locations': array([ 3, 45,  4, 43, 41, 40, 89,  3,  7,  7, 38, 90, 30, 90,  9, 84,  3,
       57, 36,  0, 24,  3, 74,  3, 90, 90,  3,  1,  3,  3,  7, 44,  5, 37,
       44,  5, 59,  9, 33,  6,  3, 69, 37, 56, 39,  6, 48, 78, 48,  1, 89,
       90,  9, 85, 89,  4, 46,  2, 68,  5, 20,  3,  2, 90,  6,  1, 42, 76,
        4,  1, 41, 45,  3, 36,  5, 11,  1, 58, 48,  3,  2, 35, 90,  3,  3,
       45,  4,  7, 51,  2,  7, 40,  5,  4, 88,  2,  2,  5, 44,  2, 68, 48,
        5, 90, 40,  4,  5,  2, 46,  7,  4,  1, 90,  4,  5, 49,  3,  2,  2,
       32, 90, 40, 42,  2,  2, 42,  7, 90, 34,  1,  1,  1,  2,  3,  9,  1,
       47,  7, 78,  2,  6, 83,  6,  6, 43,  3, 36,  0,  3,  2,  1, 47, 42,
       37,  3,  3, 38,  7,  3,  2,  3,  2, 36, 42, 41, 48,  5,  2, 42,  2,
        4, 46, 90, 45,  9, 48,  3, 40, 39, 45, 46, 41,  2, 46,  3,  4, 50,
        3,  1, 49,  8,  4, 44, 75, 49, 12, 39,  4,  6, 40])}, {'ts_index': 70, 'loc': 38, 'gap': 1.732191385577707, 'distances': array([14.1535854, 14.4874476,  8.6051012, 11.4355674, 16.2615782,
        7.456712 , 11.1208458, 13.6228196,  9.4222192,  9.1358116,
        7.4452184, 15.8563896, 11.456727 ,  9.412434 ,  6.843915 ,
       13.3220766, 13.3775886,  7.1508872, 12.5526174, 13.9462446,
       11.952447 , 13.9491506, 11.4676514,  6.8118982, 10.0587684,
       15.2735792,  8.8943576, 11.4919432, 12.9802612, 10.03395  ,
       13.269609 , 14.5682082, 10.391851 ,  8.0670916, 13.7502428,
       17.3753196, 11.6783078,  9.8985352, 12.7504292,  9.7635002,
       11.62919  , 15.0391438, 10.7128512,  8.3977158,  5.4190868,
       10.7495376, 10.341903 , 14.22359  , 13.7333576,  8.2344062,
       12.2614412, 10.5547628,  9.068923 , 10.0169788, 10.3633454,
       12.1628082, 11.8461432,  6.3138776, 10.1312026, 14.9428096,
       11.3259514,  0.       ,  7.8981768,  8.8174112,  4.3182726,
        4.5094314,  9.7347142, 15.033953 , 12.7818886, 11.9758716,
       10.088227 , 10.6528216,  9.3760828, 13.4832494, 15.0913076,
       17.1882794, 12.2640356, 14.454617 , 13.9410388, 11.0706682,
        8.8924104, 12.9145988, 14.5650092, 12.8783442,  7.4293994,
       12.0297342,  9.1729636, 12.7645448, 13.5622574, 10.7124356,
       13.2427134, 12.6998406, 16.428503 , 10.3137828,  8.2968082,
       12.8327292, 16.7179396,  6.8448932, 15.0667428, 13.8035602,
        6.4454226, 12.9040818,  9.7850942, 12.7985994,  9.2958558,
        5.9480928, 11.8880678, 16.612813 ,  9.8796208, 12.3360364,
        7.9375572,  9.3061034, 14.4465814, 16.3043086, 14.3203276,
       15.1402312, 11.1635978, 14.2360292,  9.328073 , 15.3035314,
       16.0865518, 12.7460864,  4.7116356, 10.0392994, 12.8429214,
       11.3894292, 15.8057656, 14.2353264, 12.4969668, 12.8941388,
       10.8336472,  8.1400332,  9.8543378, 15.3868512, 14.80586  ,
        2.8620734, 11.9884068, 13.3831238, 12.9770772,  6.824639 ,
       12.5454756, 11.3102794, 10.0759814, 12.8457846, 13.7899142,
       11.872842 ,  9.1589292, 14.5168268, 12.904425 ,  9.1380308,
       14.0368678,  8.1212996, 10.8221558,  8.8583154,  7.2075412,
       10.0218264, 15.5573528, 11.3054208, 11.4107094, 11.9963118,
        7.0413148, 14.094698 , 13.7620032,  7.6558584, 10.0307246]), 'delta_distances': array([20.0928376, 23.7787224, 14.2629564, 18.2924896, 21.8826596,
        8.9941776, 15.2818088, 12.3247512, 17.844718 , 14.1241816,
       16.8391028, 20.9532928,  9.9952988, 17.85843  , 14.7448628,
       13.1193596, 14.4270428, 10.9600672, 12.1723896,  8.929376 ,
       27.6500692, 32.9970392, 15.5303844, 16.0439   , 12.432818 ,
       16.8818756, 15.8173712, 18.0528036, 13.9344608, 15.2070204,
       12.3038596, 14.6296028, 15.564158 ,  9.81144  , 11.6290964,
       15.495942 , 11.8812864,  8.9542708, 10.448804 , 12.5085116,
       19.3623564, 16.6240448, 13.4207244, 12.0509312,  9.592298 ,
       12.5967356, 18.597086 , 18.0909176, 16.08741  , 19.9377248,
       18.9460832, 15.0834572, 11.0162172, 16.890432 , 17.53138  ,
       20.6726856, 13.2112816, 10.6280052,  9.8055824, 17.1231752,
       21.5213396,  0.       ,  8.0548132, 17.454084 , 11.596774 ,
       10.1346828, 10.940958 , 18.2280516, 10.9314832, 14.287562 ,
       13.0833672, 16.6898608, 11.1338756, 11.8786376, 16.1684232,
       19.1799876,  9.230434 , 15.4612392, 21.6624816, 16.8646176,
       18.3469424, 14.9169828, 17.240484 , 19.9691836,  6.8062852,
       10.648596 , 13.6025296, 13.9521776, 12.040626 , 12.6233052,
       12.5242276,  9.1544824, 11.2924192, 14.4460232, 12.0169816,
       12.9853608, 10.257788 , 10.3626192, 10.83911  , 18.085488 ,
       11.9533888, 14.3711552, 10.8534008, 14.9459864, 16.1717168,
       16.9895584, 13.6387624, 23.4451292, 17.3560272, 13.2782892,
        8.988556 , 12.0932248, 17.7192704, 10.7350344, 15.0102492,
        9.511818 , 15.1311324, 14.158334 , 12.2317792, 11.2962204,
       19.2908196, 10.3651156, 13.6930004,  9.5269968, 21.9141692,
       16.8979052, 16.538656 , 15.8870948, 18.3405132, 15.0295508,
        9.927724 , 16.2617236, 17.6177676, 14.8469568, 15.4542104,
        7.7068968, 22.422914 , 11.9120632, 14.4810136, 12.158644 ,
       10.8499536, 16.7483944, 11.9555328, 22.7493024, 12.1635196,
       14.2183368, 11.1658436, 29.094702 , 12.2066324, 17.1625128,
       12.1065404, 16.3361008, 20.5920572,  9.3091784,  8.7057176,
       10.3123312, 14.7340372, 11.0826028, 19.0728384, 10.7535772,
       12.9790124, 11.8513804, 21.1979944, 14.5076352, 12.3459484]), 'locations': array([17,  4, 40, 38,  2,  0, 33, 13, 87, 35,  3,  6, 81,  0, 89, 88, 44,
       89, 51, 85,  0, 39,  9,  0, 89, 31, 11, 33, 41, 14, 47, 87,  1,  6,
       27,  0, 42,  0, 50, 45, 28, 46,  3, 86, 87, 44, 88,  1, 10,  3, 86,
       90, 17, 40,  6, 27, 89, 89, 73,  1,  7, 38,  0, 33,  2,  6, 55, 43,
       77, 45, 28,  0, 86, 78, 37, 34, 46, 21, 16,  1,  7, 28, 40, 37,  8,
       87,  1, 89, 63, 43, 43, 90, 52,  1, 41, 38, 87, 29, 81, 40, 39, 73,
       89, 39, 88,  4, 90, 36,  0, 76, 44,  0, 90, 79,  0, 68, 86, 29, 31,
       42, 40, 48, 36, 88,  4, 37, 41,  6, 48, 44, 39, 33,  6,  2, 89,  2,
       37,  8,  6,  0, 87,  2,  6,  1, 47, 37, 36,  2, 79, 38, 45, 31,  0,
        5, 88, 74, 79,  5,  1, 84, 46,  9,  0,  1,  3])}], 'clusters': array([0, 0, 1, 2, 0, 1, 0, 2, 0, 0, 1, 0, 0, 2, 0, 0, 0, 2, 0, 0, 2, 0,
       0, 0, 0, 0, 2, 0, 0, 0, 0, 0, 1, 0, 0, 0, 0, 2, 0, 1, 0, 0, 0, 0,
       1, 1, 0, 0, 0, 0, 2, 2, 0, 0, 0, 0, 1, 2, 0, 0, 0, 0, 0, 1, 0, 0,
       2, 0, 0, 0, 2, 1, 2, 0, 2, 2, 1, 0, 0, 1, 0, 0, 0, 0, 1, 1, 1, 0,
       0, 0, 0, 0, 0, 0, 0, 0, 0, 1, 1, 1, 0, 0, 2, 0, 1, 0, 0, 0, 0, 1,
       1, 0, 0, 0, 1, 0, 2, 0, 0, 2, 0, 0, 2, 0, 0, 0, 1, 0, 1, 2, 0, 0,
       1, 1, 0, 0, 2, 0, 0, 0, 0, 0, 0, 0, 0, 1, 1, 1, 1, 0, 0, 0, 2, 0,
       0, 0, 0, 1, 0, 0, 0, 0, 2, 0, 0, 0, 2, 0, 1, 0, 0, 2, 0, 0, 0, 0,
       0, 0, 0, 0, 0, 0, 0, 2, 0, 0, 2, 0, 1, 0, 0, 0, 1, 0, 2, 0, 0, 2,
       0, 1]), 'time': 92.86535406112671}, 24: {'RI': 0.5662814070351759, 'num_clusters': 3, 'uShapelets': [{'ts_index': 79, 'loc': 16, 'gap': 0.6100862793982618, 'distances': array([2.53400058, 2.61067883, 2.89040258, 1.93560187, 3.73225204,
       1.92480529, 2.55355621, 2.01528746, 2.74021592, 1.98113283,
       2.85909967, 1.54979017, 3.06480625, 3.27252271, 2.67695121,
       2.78965067, 1.37705092, 2.27991775, 2.37272625, 1.98755179,
       4.37066654, 2.48552608, 2.1308985 , 2.59983813, 2.21599025,
       2.95499638, 2.08054567, 2.67061725, 2.68036487, 3.19431454,
       2.54703463, 2.22176767, 4.03470983, 4.12187954, 3.51934767,
       2.17649888, 2.83558396, 1.65858346, 4.73854954, 4.05005592,
       2.21603871, 2.34764192, 1.21758379, 2.25905563, 2.69274037,
       1.79026804, 3.88169312, 2.71567738, 1.97001179, 3.09214221,
       4.04626838, 2.23841383, 2.52087646, 4.08405304, 2.55830496,
       1.42479521, 4.51129712, 3.29752354, 1.43929408, 2.923896  ,
       4.33098063, 3.85238271, 1.88613238, 2.3097575 , 2.17171763,
       2.112271  , 2.73890029, 1.94913729, 3.04620233, 2.99801467,
       2.31573275, 3.55767613, 1.18063425, 2.37319629, 3.21660621,
       2.50715183, 3.24562621, 2.47829271, 2.0484615 , 0.        ,
       3.51682508, 4.14015204, 2.89942288, 2.14119604, 3.15885029,
       3.03720029, 3.73255242, 2.80220446, 2.38360938, 2.71477058,
       2.626594  , 4.45701013, 2.94297454, 2.54314367, 2.29920833,
       3.62233425, 3.02577275, 1.900192  , 3.90548433, 4.43833713,
       2.53581292, 2.24598429, 1.36846521, 3.31146962, 2.21674733,
       2.3882355 , 2.95894763, 2.25035883, 1.82787496, 2.13109104,
       2.69741092, 2.56717671, 2.37201383, 2.34693308, 2.43216829,
       2.94185763, 2.56261067, 1.95668667, 1.767658  , 3.95794633,
       1.7285305 , 2.36386175, 2.35277033, 2.42029625, 2.62060537,
       2.31802804, 1.94639046, 2.32280738, 2.1688805 , 1.89056167,
       2.11675988, 1.63156454, 2.35637479, 2.25662167, 2.49492463,
       1.61278342, 1.75862154, 2.4713305 , 1.84407112, 1.90971708,
       2.323343  , 2.13055896, 1.71619092, 2.8746385 , 2.00201429,
       2.51754846, 2.96654179, 2.86059879, 2.22126579, 1.99643908,
       1.68077246, 1.57801054, 2.24809888, 2.35296212, 1.82502008,
       1.97929108, 2.10347838, 1.89762375, 2.46685221, 2.55141492,
       2.55882742, 2.12828117, 3.90812371, 2.13814621, 2.91709975,
       1.73581521, 2.04162363, 2.5084485 , 2.144657  , 2.06382079,
       1.67083792, 3.66538296, 1.56916046, 1.68797354, 1.99935308,
       2.19161971, 1.91326046, 2.58638692, 2.23689108, 2.30539638,
       2.29043546, 2.20026437, 2.15069808, 2.28786375, 3.07238479,
       3.37899525, 2.93066246, 2.91948871, 2.50876   , 1.82119979,
       3.09606979, 1.94516063, 2.50416713, 1.34995713, 1.72879204,
       2.47891071, 1.15503817, 2.05826046, 1.47534475, 1.87050588]), 'delta_distances': array([ 6.00769192,  5.75000667,  6.17741608,  4.577906  ,  7.72431133,
        5.10126308,  6.31521608,  5.254362  ,  5.43892542,  4.90170092,
        7.34316183,  4.81411275,  5.61364467,  6.3998575 ,  5.491713  ,
        4.93417417,  3.94412767,  5.66341042,  5.49766092,  4.35397108,
        5.46025483,  5.56665592,  4.72835933,  6.06765283,  4.29500017,
        6.50541983,  4.49462342,  4.77527383,  6.05948567,  6.60683467,
        5.80445733,  5.0601275 ,  6.78065308,  6.74627417,  6.32186875,
        4.73496475,  6.37412617,  3.85468733,  6.88302042,  7.76580425,
        5.39878292,  5.89924733,  3.94502842,  5.09799133,  5.71391017,
        5.02632067,  7.43752617,  4.92005467,  4.793802  ,  7.14213933,
        7.68661183,  5.93778308,  6.12156233,  6.0053085 ,  5.81524833,
        4.54169292,  7.54843142,  5.58144558,  4.45055958,  7.78735692,
        6.75709342,  9.4434165 ,  4.96672092,  6.47214142,  4.49874442,
        5.43911042,  5.54684333,  4.26898225,  6.73900942,  4.99373108,
        4.64181942,  8.58086092,  2.98644817,  5.81592292,  6.27826392,
        4.98468467,  7.24553067,  5.76457058,  6.37559017,  0.        ,
        7.94986333,  6.47244908,  6.84526442,  5.71499067,  6.47247592,
        5.89549792,  8.32562858,  6.75510525,  4.22048942,  6.90556717,
        5.1649055 ,  8.15867742,  6.413963  ,  5.63660133,  4.58810758,
        7.72295858,  5.95756883,  4.627012  , 10.54948375,  8.06251   ,
        4.38823892,  4.72565358,  4.20640675,  5.73275908,  5.5152035 ,
        4.89827167,  6.48717867,  4.75436325,  4.60937283,  5.09016242,
        4.94082067,  5.4809975 ,  4.6519135 ,  4.91915133,  5.71299908,
        6.10442208,  5.94722858,  5.08856692,  4.22806217,  7.435689  ,
        4.44085592,  5.08344208,  4.83103625,  4.802362  ,  5.9528305 ,
        4.28002683,  3.59046167,  5.50483833,  5.26008242,  3.41841867,
        4.77684158,  4.14288767,  4.79699867,  4.52240508,  4.66652667,
        4.14259417,  3.98324483,  5.13533833,  4.16459717,  4.46015575,
        6.56367783,  6.17713133,  3.39809808,  7.19470242,  4.64622317,
        4.92691608,  5.50174675,  5.05087633,  4.98378233,  4.56427633,
        4.99069525,  4.72488208,  4.75137392,  4.22597733,  4.11156958,
        5.21194883,  4.13428867,  5.60636308,  5.60832358,  6.1206405 ,
        4.338186  ,  4.29934892,  5.658553  ,  4.54679308,  4.58233717,
        3.28290683,  4.3237975 ,  4.88844767,  5.02859192,  5.4232425 ,
        4.144111  ,  6.04080217,  3.4508585 ,  4.78585717,  5.50630442,
        4.80361558,  5.014513  ,  5.07339242,  4.15856683,  4.15128508,
        4.59970675,  5.47672217,  4.10201017,  3.81897392,  7.05358692,
        6.46713625,  5.1132235 ,  6.52152583,  4.23511608,  4.18839292,
        7.60514358,  4.81138658,  5.16100158,  4.11878775,  4.1434245 ,
        5.10749425,  3.42425967,  5.24797433,  3.42186933,  3.792443  ]), 'locations': array([12, 14, 15, 15, 14, 13, 21, 13, 12, 30,  4,  8,  8, 17, 25, 12, 15,
       14,  5,  6, 53,  9,  9, 15,  3,  4, 26, 11,  5, 15, 12,  8, 36,  9,
       21, 19, 10, 10, 34, 30, 12, 14,  9, 10, 10, 13, 13, 15, 15,  7, 12,
        3, 20, 40,  6, 16, 24, 14,  7, 28, 28, 12, 15, 17, 36, 33, 11, 14,
       14, 15, 13, 19, 11, 11, 14, 15, 11, 16, 16, 16, 14,  9,  3,  9, 35,
        6, 14, 15, 21, 17, 12, 12, 30, 18, 17, 12,  6, 21,  4,  9,  9, 11,
       24, 11, 12, 15, 28, 12, 13, 11, 17, 16,  2, 16, 30, 10, 15, 15, 10,
       34,  9, 13, 13, 12, 18, 10, 11, 25, 10, 12, 13, 14, 12, 14, 15,  9,
        5, 14, 12, 17, 25, 26,  9, 21, 10, 16, 11, 24, 12, 15, 17, 16, 12,
       10, 12, 16,  4, 24, 11, 16, 13,  5, 37, 16,  6,  7, 10, 14, 13, 14,
       17, 10, 16, 13, 14,  7, 13, 10, 12, 14, 13,  4, 15,  7, 18,  9,  8,
       15,  7, 11, 31, 10, 16, 19, 20, 18,  9, 17, 18, 13])}, {'ts_index': 98, 'loc': 12, 'gap': 0.6617022806618893, 'distances': array([5.36059025, 3.70947312, 5.54387779, 3.73566887, 3.25624871,
       4.40297421, 3.24891783, 3.58007871, 4.78572492, 3.34681567,
       2.60598833, 5.42588362, 4.17031287, 2.71033192, 3.01566592,
       5.77783842, 3.86201563, 4.88502783, 4.61191271, 3.17649804,
       3.66108271, 5.77179038, 3.60852425, 5.76004317, 5.03302037,
       4.8901715 , 0.        , 4.10343408, 4.69776904, 4.11586058,
       3.94446171, 4.57522938, 4.661091  , 3.54406992]), 'delta_distances': array([6.66905483, 6.90430408, 8.34878525, 6.37696008, 6.695456  ,
       7.05738033, 7.18421825, 7.8819655 , 7.55330717, 7.70289   ,
       4.77891792, 7.79125875, 7.04630833, 6.87743342, 4.90615617,
       8.34466617, 6.573694  , 8.98750658, 9.01294792, 6.28083383,
       7.37636917, 9.53677808, 5.961959  , 8.53959467, 6.99268433,
       8.36432708, 0.        , 8.28728917, 7.68771442, 7.49047883,
       6.59207975, 7.32466642, 7.7384045 , 7.71222092]), 'locations': array([43, 32,  6, 21, 33, 16, 16,  2, 36, 21, 13, 17, 30, 25, 27, 36, 13,
       14, 16, 19, 22, 23, 41, 27,  0, 14, 12, 27, 25, 34, 37, 13, 34, 37])}], 'clusters': array([1, 1, 1, 1, 0, 1, 1, 1, 1, 1, 1, 1, 1, 2, 1, 1, 1, 1, 1, 1, 0, 1,
       1, 1, 1, 1, 1, 1, 1, 2, 1, 1, 2, 2, 2, 1, 1, 1, 2, 2, 1, 1, 1, 1,
       1, 1, 2, 1, 1, 2, 0, 1, 1, 2, 1, 1, 2, 2, 1, 1, 0, 2, 1, 1, 1, 1,
       1, 1, 1, 1, 1, 2, 1, 1, 2, 1, 2, 1, 1, 1, 2, 0, 1, 1, 2, 1, 0, 1,
       1, 1, 1, 2, 1, 1, 1, 2, 1, 1, 2, 2, 1, 1, 1, 2, 1, 1, 1, 1, 1, 1,
       1, 1, 1, 1, 1, 1, 1, 1, 1, 2, 1, 1, 1, 1, 1, 1, 1, 1, 1, 1, 1, 1,
       1, 1, 1, 1, 1, 1, 1, 1, 1, 1, 1, 1, 1, 1, 1, 1, 1, 1, 1, 1, 1, 1,
       1, 1, 1, 1, 1, 1, 1, 1, 2, 1, 1, 1, 1, 1, 1, 1, 1, 2, 1, 1, 1, 1,
       1, 1, 1, 1, 1, 1, 1, 1, 1, 2, 1, 1, 1, 1, 2, 1, 1, 1, 1, 1, 1, 1,
       1, 1]), 'time': 32.468241691589355}}, 'ED': {24: {'RI': 0.5246231155778894, 'num_clusters': 3, 'uShapelets': [{'ts_index': 90, 'loc': 23, 'gap': 0.037498938654411895, 'distances': array([0.28767373, 0.30012752, 0.26406656, 0.34462652, 0.31058377,
       0.34470405, 0.29190722, 0.25463666, 0.35018577, 0.26160353,
       0.37489672, 0.27514379, 0.38085294, 0.3067259 , 0.30074102,
       0.29643648, 0.22983382, 0.31467093, 0.35738239, 0.25473898,
       0.32291815, 0.41186129, 0.3424075 , 0.24848751, 0.29188698,
       0.29755096, 0.25756918, 0.34108413, 0.285143  , 0.32519423,
       0.36676028, 0.27011046, 0.24123127, 0.26519823, 0.27726604,
       0.34366367, 0.29388213, 0.28894366, 0.33227539, 0.27722092,
       0.31057736, 0.2549039 , 0.36064142, 0.28108834, 0.38359639,
       0.36380381, 0.3849145 , 0.25063698, 0.27657367, 0.27919558,
       0.36874129, 0.2204265 , 0.3092352 , 0.24118152, 0.25810679,
       0.20959346, 0.29020435, 0.28908161, 0.23866752, 0.23811035,
       0.35316782, 0.33440014, 0.25171123, 0.29318862, 0.24400934,
       0.25253788, 0.29025239, 0.293727  , 0.25887315, 0.27148939,
       0.33903521, 0.36904733, 0.26921802, 0.36690398, 0.3258033 ,
       0.30381025, 0.27068174, 0.32228595, 0.31229032, 0.30462236,
       0.3338886 , 0.39523894, 0.38293105, 0.27217052, 0.2833928 ,
       0.42010153, 0.28396811, 0.30991258, 0.22433815, 0.29899347,
       0.        , 0.35963525, 0.27649014, 0.25782428, 0.30204319,
       0.36592861, 0.25929513, 0.2637454 , 0.37672038, 0.28167409,
       0.27734592, 0.28011013, 0.27074462, 0.3428604 , 0.34039165,
       0.29235474, 0.26400745, 0.30369793, 0.25474005, 0.32840859,
       0.2692031 , 0.27078551, 0.26993895, 0.31881172, 0.28920302,
       0.34429884, 0.38728971, 0.29230113, 0.32723889, 0.28981401,
       0.28162014, 0.36843671, 0.37904444, 0.31813887, 0.38548588,
       0.28974927, 0.36300128, 0.28917178, 0.39907519, 0.32604189,
       0.25374922, 0.29505807, 0.30942094, 0.21484908, 0.28909272,
       0.29126643, 0.30759341, 0.21339748, 0.24664424, 0.23701413,
       0.27117097, 0.25424618, 0.28938522, 0.2413702 , 0.36289226,
       0.30919013, 0.30945144, 0.23608462, 0.32697438, 0.2502412 ,
       0.27249876, 0.31569987, 0.38355205, 0.31268176, 0.29544078,
       0.37441617, 0.27816281, 0.27182289, 0.2664762 , 0.27060328,
       0.24208705, 0.26335147, 0.24419306, 0.29161366, 0.32836194,
       0.22352781, 0.24206473, 0.28658807, 0.39161146, 0.32459983,
       0.2756375 , 0.35953521, 0.29948515, 0.24797718, 0.28197159,
       0.28327882, 0.34001874, 0.37434987, 0.29027214, 0.34968889,
       0.25372819, 0.33845413, 0.3140598 , 0.36828692, 0.24285264,
       0.35363482, 0.27289623, 0.32490372, 0.26503249, 0.32938207,
       0.25960413, 0.30300404, 0.32263375, 0.27479236, 0.32751219,
       0.22368667, 0.29759509, 0.28530477, 0.23830799, 0.39188998]), 'delta_distances': array([0., 0., 0., 0., 0., 0., 0., 0., 0., 0., 0., 0., 0., 0., 0., 0., 0.,
       0., 0., 0., 0., 0., 0., 0., 0., 0., 0., 0., 0., 0., 0., 0., 0., 0.,
       0., 0., 0., 0., 0., 0., 0., 0., 0., 0., 0., 0., 0., 0., 0., 0., 0.,
       0., 0., 0., 0., 0., 0., 0., 0., 0., 0., 0., 0., 0., 0., 0., 0., 0.,
       0., 0., 0., 0., 0., 0., 0., 0., 0., 0., 0., 0., 0., 0., 0., 0., 0.,
       0., 0., 0., 0., 0., 0., 0., 0., 0., 0., 0., 0., 0., 0., 0., 0., 0.,
       0., 0., 0., 0., 0., 0., 0., 0., 0., 0., 0., 0., 0., 0., 0., 0., 0.,
       0., 0., 0., 0., 0., 0., 0., 0., 0., 0., 0., 0., 0., 0., 0., 0., 0.,
       0., 0., 0., 0., 0., 0., 0., 0., 0., 0., 0., 0., 0., 0., 0., 0., 0.,
       0., 0., 0., 0., 0., 0., 0., 0., 0., 0., 0., 0., 0., 0., 0., 0., 0.,
       0., 0., 0., 0., 0., 0., 0., 0., 0., 0., 0., 0., 0., 0., 0., 0., 0.,
       0., 0., 0., 0., 0., 0., 0., 0., 0., 0., 0., 0., 0.]), 'locations': array([28, 24, 40, 26, 45, 54, 35, 27, 25, 46, 14, 19, 33, 42, 63, 34, 26,
       25, 14, 17, 57, 58, 29, 33, 16, 18, 37, 29, 21, 24, 29, 19, 45, 20,
       23, 37, 29, 29, 50, 38, 29, 24, 42, 29, 21, 17, 23, 32, 28, 18, 28,
       14, 33, 39, 19, 29, 28, 49, 18, 39, 39, 26, 27, 31, 46, 44, 25, 27,
       29, 24, 43, 32, 24, 57, 31, 40, 28, 30, 20, 29, 25, 37, 22, 28, 47,
       28, 31, 37, 34, 22, 23, 66, 43, 31, 40, 32, 32, 46, 17, 32, 44, 23,
       36, 49, 23, 26, 44, 31, 26, 24, 37, 35, 18, 27, 47, 21, 46, 31, 32,
       38, 20, 24, 26, 16, 42, 25, 22, 42, 46, 24, 24, 25, 26, 30, 32, 20,
       17, 27, 39, 28, 32, 37, 22, 37, 18, 27, 16, 38, 24, 19, 30, 34, 25,
       38, 26, 22, 17, 40, 27, 27, 26, 18, 40, 26, 24, 17, 28, 23, 62, 25,
       30, 23, 38, 24, 27, 25, 31, 23, 26, 38, 25, 15, 24, 20, 39, 35, 18,
       22, 24, 17, 49, 28, 20, 41, 31, 40, 13, 28, 29, 16])}, {'ts_index': 73, 'loc': 11, 'gap': 0.036933046773491074, 'distances': array([0.29193235, 0.32920842, 0.24303943, 0.33354056, 0.27735674,
       0.23969818, 0.23884847, 0.22879213, 0.26725349, 0.29801369,
       0.35637133, 0.34447625, 0.        , 0.25756985, 0.2603723 ,
       0.31571129, 0.37063539, 0.33479873, 0.37250947, 0.23115331,
       0.27582112, 0.20814993, 0.2609555 , 0.19590923, 0.23783964,
       0.27311665, 0.23305468, 0.17951213, 0.20147934, 0.28736159,
       0.23138708, 0.20513048, 0.27646878, 0.19841637]), 'delta_distances': array([0., 0., 0., 0., 0., 0., 0., 0., 0., 0., 0., 0., 0., 0., 0., 0., 0.,
       0., 0., 0., 0., 0., 0., 0., 0., 0., 0., 0., 0., 0., 0., 0., 0., 0.]), 'locations': array([ 8,  1,  5, 11, 12,  4, 10, 13, 10, 11, 27, 16, 11,  9,  5, 15, 50,
       11, 61,  8,  7, 15, 13, 12,  8,  7, 14, 11, 13,  9, 10,  8,  9,  8])}], 'clusters': array([1, 1, 1, 1, 1, 1, 1, 1, 1, 1, 2, 1, 0, 1, 1, 1, 1, 1, 2, 1, 1, 0,
       1, 1, 1, 1, 1, 1, 1, 1, 2, 1, 1, 1, 1, 1, 1, 1, 1, 1, 1, 1, 2, 1,
       2, 2, 2, 1, 1, 1, 2, 1, 1, 1, 1, 1, 1, 1, 1, 1, 0, 1, 1, 1, 1, 1,
       1, 1, 1, 1, 1, 0, 1, 2, 1, 1, 1, 1, 1, 1, 1, 2, 2, 1, 1, 2, 1, 1,
       1, 1, 1, 0, 1, 1, 1, 0, 1, 1, 0, 1, 1, 1, 1, 1, 1, 1, 1, 1, 1, 1,
       1, 1, 1, 1, 1, 1, 2, 1, 1, 1, 1, 2, 2, 1, 2, 1, 2, 1, 2, 1, 1, 1,
       1, 1, 1, 1, 1, 1, 1, 1, 1, 1, 1, 1, 2, 1, 1, 1, 1, 1, 1, 1, 2, 1,
       1, 2, 1, 1, 1, 1, 1, 1, 1, 1, 1, 1, 1, 1, 2, 1, 1, 2, 1, 1, 1, 1,
       1, 2, 1, 1, 1, 1, 1, 2, 1, 2, 1, 1, 1, 1, 1, 1, 1, 1, 1, 1, 1, 1,
       1, 2]), 'time': 23.513976335525513}}}