{'FOTS': {5: {'RI': 0.4642713567839196, 'num_clusters': 8, 'uShapelets': [{'ts_index': 133, 'loc': 3, 'gap': 0.1183404785495421, 'distances': array([0.14847267, 0.32157937, 0.25431214, 0.2611569 , 0.43907013,
       0.32026077, 0.32057849, 0.40172148, 0.24676817, 0.26303   ,
       0.16212437, 0.32658816, 0.35368296, 0.41247057, 0.37889952,
       0.18879156, 0.2719258 , 0.44817858, 0.45213807, 0.35929055,
       0.23010436, 0.10411973, 0.33477962, 0.38623149, 0.2510508 ,
       0.37178693, 0.10341978, 0.11562937, 0.33026157, 0.32397141,
       0.42395989, 0.40972882, 0.40513204, 0.4529492 , 0.3493495 ,
       0.0770399 , 0.39821141, 0.21091152, 0.14653082, 0.3400617 ,
       0.25545452, 0.40683766, 0.35863963, 0.40338923, 0.37141075,
       0.41261719, 0.34333222, 0.48577854, 0.35135687, 0.22277349,
       0.34144843, 0.24423034, 0.37425182, 0.12896906, 0.25670905,
       0.34262785, 0.25869729, 0.31634682, 0.14443853, 0.15894032,
       0.40559562, 0.16683631, 0.43786254, 0.40517162, 0.40486963,
       0.31844691, 0.34600671, 0.32747637, 0.21737978, 0.27902027,
       0.08784449, 0.37000176, 0.07698134, 0.25628253, 0.30493705,
       0.45089043, 0.20465395, 0.18289327, 0.17322149, 0.32253992,
       0.08511656, 0.44974185, 0.37980717, 0.45140265, 0.39719711,
       0.40407134, 0.45577323, 0.45610297, 0.42126912, 0.44047372,
       0.32532142, 0.30730337, 0.40223146, 0.24721575, 0.14161992,
       0.36544424, 0.37063332, 0.20615744, 0.43726719, 0.34825573,
       0.26287813, 0.12921016, 0.18342892, 0.35929114, 0.44683127,
       0.0817725 , 0.42032857, 0.21999689, 0.3843363 , 0.16480934,
       0.13170345, 0.43776522, 0.12899662, 0.42686837, 0.4091194 ,
       0.418642  , 0.25222394, 0.36582967, 0.42954102, 0.34424446,
       0.45932217, 0.4297095 , 0.20326814, 0.35952868, 0.14238792,
       0.49578102, 0.31276541, 0.446002  , 0.35810471, 0.2769427 ,
       0.22418656, 0.29967642, 0.10234222, 0.        , 0.34535372,
       0.16615426, 0.14024447, 0.11616947, 0.34874009, 0.32038053,
       0.43112058, 0.11247939, 0.20613103, 0.41328521, 0.2955571 ,
       0.24260813, 0.36447954, 0.10245864, 0.38556642, 0.44464394,
       0.26107322, 0.35337999, 0.32890948, 0.41779251, 0.20176446,
       0.41706046, 0.10973771, 0.09814767, 0.3454727 , 0.12293744,
       0.31865991, 0.11144041, 0.14429689, 0.41352531, 0.39223913,
       0.38371841, 0.40775356, 0.35375503, 0.36197296, 0.13328621,
       0.45663618, 0.40997325, 0.45585887, 0.38474096, 0.23408331,
       0.37532686, 0.39889365, 0.31301956, 0.2240978 , 0.11382448,
       0.41079596, 0.32990179, 0.43013171, 0.07858977, 0.42274982,
       0.28552568, 0.36930353, 0.40956837, 0.37091534, 0.369562  ,
       0.40044815, 0.16457769, 0.28408386, 0.38008076, 0.42217307,
       0.46442778, 0.25844476, 0.1859484 , 0.33048957, 0.14159082]), 'delta_distances': array([0., 0., 0., 0., 0., 0., 0., 0., 0., 0., 0., 0., 0., 0., 0., 0., 0.,
       0., 0., 0., 0., 0., 0., 0., 0., 0., 0., 0., 0., 0., 0., 0., 0., 0.,
       0., 0., 0., 0., 0., 0., 0., 0., 0., 0., 0., 0., 0., 0., 0., 0., 0.,
       0., 0., 0., 0., 0., 0., 0., 0., 0., 0., 0., 0., 0., 0., 0., 0., 0.,
       0., 0., 0., 0., 0., 0., 0., 0., 0., 0., 0., 0., 0., 0., 0., 0., 0.,
       0., 0., 0., 0., 0., 0., 0., 0., 0., 0., 0., 0., 0., 0., 0., 0., 0.,
       0., 0., 0., 0., 0., 0., 0., 0., 0., 0., 0., 0., 0., 0., 0., 0., 0.,
       0., 0., 0., 0., 0., 0., 0., 0., 0., 0., 0., 0., 0., 0., 0., 0., 0.,
       0., 0., 0., 0., 0., 0., 0., 0., 0., 0., 0., 0., 0., 0., 0., 0., 0.,
       0., 0., 0., 0., 0., 0., 0., 0., 0., 0., 0., 0., 0., 0., 0., 0., 0.,
       0., 0., 0., 0., 0., 0., 0., 0., 0., 0., 0., 0., 0., 0., 0., 0., 0.,
       0., 0., 0., 0., 0., 0., 0., 0., 0., 0., 0., 0., 0.]), 'locations': array([35,  2, 48, 35,  6, 35, 44,  2, 35, 15, 27, 28, 27,  4, 70, 45, 76,
        3, 74, 67, 83, 34, 83, 77, 22, 68,  6, 35, 30,  2,  3, 88,  9, 29,
       31,  6, 52,  1, 16,  7,  3, 58, 76,  1, 88, 36, 48,  3, 85, 69, 88,
       82, 13,  8, 72, 35, 36, 52, 31, 51, 32,  3, 35,  4, 14,  9, 84,  6,
       34, 68,  3,  9, 79, 66, 85, 37, 33, 40,  3, 35, 37, 25, 27, 36,  9,
       39, 16, 25, 38,  2, 33, 15, 54, 33, 89, 77, 69,  9,  3, 42, 11, 85,
       44, 14, 75, 36,  5,  6, 85, 79, 84, 43, 29,  2, 11, 76, 75, 75, 38,
       48,  0, 36, 36, 26, 79, 55, 35,  7,  9, 76, 34, 68, 34,  3,  4, 71,
       29, 36, 48, 36,  6,  6, 36, 14,  2,  3, 58,  4,  9, 44, 81, 38,  9,
       42, 78,  4, 63, 51, 35,  2, 76,  2,  5, 36, 36, 60, 35, 32, 36,  3,
       16, 78, 45,  6, 35,  6, 68, 78, 11,  5,  3, 59, 77,  4,  8,  6, 70,
       78, 77, 63, 55, 37, 37,  8, 42, 58, 28, 38, 37, 36])}, {'ts_index': 85, 'loc': 4, 'gap': 0.1355446108917712, 'distances': array([0.17502656, 0.37936767, 0.09078942, 0.43851339, 0.39967016,
       0.4009876 , 0.18548973, 0.3686638 , 0.22982594, 0.13417052,
       0.25806399, 0.42553965, 0.2978925 , 0.12034799, 0.34689897,
       0.1535397 , 0.42776061, 0.29422849, 0.35706606, 0.22350519,
       0.30425398, 0.19373523, 0.41003558, 0.39405975, 0.18080051,
       0.2718208 , 0.08677905, 0.38730693, 0.39531361, 0.15151873,
       0.21579926, 0.10963651, 0.38346306, 0.2231731 , 0.43101863,
       0.33532756, 0.19506663, 0.04199496, 0.40282679, 0.31374528,
       0.38830386, 0.3106685 , 0.31961796, 0.33829999, 0.3619442 ,
       0.35025241, 0.39000222, 0.32038838, 0.34981333, 0.05310221,
       0.38611677, 0.38180503, 0.0627403 , 0.39845412, 0.17283934,
       0.41933449, 0.23045034, 0.33488419, 0.06957329, 0.38094416,
       0.30438252, 0.34279726, 0.29439634, 0.34130394, 0.23994085,
       0.08486152, 0.26432752, 0.33795438, 0.39373259, 0.2161027 ,
       0.        , 0.39431476, 0.4323543 , 0.40498725, 0.12561914,
       0.10510419, 0.39222273, 0.11644543, 0.32849343, 0.21409684,
       0.27357701, 0.0622054 , 0.40569348, 0.36829237, 0.25174318,
       0.04792032, 0.26097156, 0.12045314, 0.07456121, 0.25405874,
       0.36286263, 0.38826149, 0.04765986, 0.11770557, 0.38181827,
       0.36447146, 0.27902629, 0.06477554, 0.16263869, 0.41586165,
       0.4203853 , 0.38198435, 0.39438853, 0.28675647, 0.05881877,
       0.43869848, 0.22019331, 0.10615121, 0.13056384, 0.33521798,
       0.23536906, 0.29895939, 0.21333439, 0.03740784, 0.40546759,
       0.4182329 , 0.20310917, 0.2258104 , 0.4181519 , 0.38799692,
       0.25081363, 0.34134166, 0.06898597, 0.42792478, 0.444699  ,
       0.24947082, 0.26818825, 0.40273732, 0.34318738, 0.39470837,
       0.4127849 , 0.1997963 , 0.27850773, 0.08317055, 0.40275486,
       0.4347487 , 0.22212398, 0.41248097, 0.40095702, 0.08556612,
       0.25405038, 0.18072576, 0.27993691, 0.33119226, 0.40471073,
       0.06781156, 0.41009928, 0.30435471, 0.32037356, 0.41657854,
       0.39762154, 0.04344387, 0.40040591, 0.37506117, 0.19926129,
       0.40279007, 0.42294732, 0.31409707, 0.37260186, 0.09702525,
       0.40508668]), 'delta_distances': array([0., 0., 0., 0., 0., 0., 0., 0., 0., 0., 0., 0., 0., 0., 0., 0., 0.,
       0., 0., 0., 0., 0., 0., 0., 0., 0., 0., 0., 0., 0., 0., 0., 0., 0.,
       0., 0., 0., 0., 0., 0., 0., 0., 0., 0., 0., 0., 0., 0., 0., 0., 0.,
       0., 0., 0., 0., 0., 0., 0., 0., 0., 0., 0., 0., 0., 0., 0., 0., 0.,
       0., 0., 0., 0., 0., 0., 0., 0., 0., 0., 0., 0., 0., 0., 0., 0., 0.,
       0., 0., 0., 0., 0., 0., 0., 0., 0., 0., 0., 0., 0., 0., 0., 0., 0.,
       0., 0., 0., 0., 0., 0., 0., 0., 0., 0., 0., 0., 0., 0., 0., 0., 0.,
       0., 0., 0., 0., 0., 0., 0., 0., 0., 0., 0., 0., 0., 0., 0., 0., 0.,
       0., 0., 0., 0., 0., 0., 0., 0., 0., 0., 0., 0., 0., 0., 0., 0., 0.,
       0., 0., 0., 0., 0., 0., 0., 0.]), 'locations': array([ 2, 50, 34,  5, 35, 44, 87, 34,  9, 30, 27,  3, 70, 43, 80, 36, 89,
       67, 54, 83, 77, 73, 72, 88, 35, 35, 78, 51, 86, 58, 34, 34, 47, 34,
       10, 83,  2, 35,  3, 34,  3, 78, 69, 37, 86, 15, 24, 37, 88,  7, 59,
       36,  3, 59, 80, 79,  2, 34,  2, 49, 74,  6,  5, 78, 44, 76,  4, 29,
       37, 10,  4, 78, 62, 37, 80,  1, 16, 52, 33, 77,  3, 54, 28, 43, 47,
        7, 13,  3,  5, 80,  6, 40,  2,  9,  9,  4, 36, 38, 10, 33, 36, 77,
       80, 84,  2, 45,  9, 77, 35, 76,  9, 48, 35,  6, 80, 48,  2, 88, 78,
       70, 56, 79, 76, 77,  9, 34,  3, 78, 65, 35, 36, 74,  6, 31, 79, 76,
       36, 82, 35, 34, 68,  8, 34,  3,  3, 28,  4, 48, 45, 37, 77,  3, 31,
        8, 77,  4,  5,  8, 28, 39,  6])}, {'ts_index': 77, 'loc': 5, 'gap': 0.0851087034411509, 'distances': array([0.26621804, 0.19284309, 0.46143869, 0.3347865 , 0.46721525,
       0.34847916, 0.34984111, 0.26499105, 0.4457936 , 0.31748503,
       0.31183073, 0.4073258 , 0.39291467, 0.40088589, 0.19214103,
       0.21781172, 0.34985876, 0.35535631, 0.22576141, 0.34998553,
       0.09332255, 0.34858617, 0.10094568, 0.3041789 , 0.17634164,
       0.27764078, 0.41822986, 0.27883649, 0.29727442, 0.43842355,
       0.34824496, 0.13015038, 0.17629895, 0.26771831, 0.32899831,
       0.28164178, 0.41245994, 0.39160842, 0.3639433 , 0.42583432,
       0.31404477, 0.3203319 , 0.30673801, 0.38303652, 0.20487956,
       0.19333498, 0.35727044, 0.45280581, 0.37615188, 0.3410794 ,
       0.20426075, 0.38838906, 0.44666954, 0.26312237, 0.31131389,
       0.        , 0.35827889, 0.14796632, 0.44179514, 0.27581958,
       0.43807472, 0.33770081, 0.44883675, 0.27965066, 0.30669098,
       0.37171445, 0.16317619, 0.14031567, 0.20069102, 0.34529177,
       0.07407623, 0.3159632 , 0.22228809, 0.17612237, 0.15329037,
       0.1619653 , 0.39555685, 0.39894657, 0.34695787, 0.11095876,
       0.30952867, 0.31977136, 0.39319318, 0.45556361, 0.42585866,
       0.29044604, 0.09589466, 0.38206938, 0.17506975, 0.29610746,
       0.26204379, 0.36264116, 0.15302205, 0.08361333, 0.1428984 ,
       0.42444685, 0.36807032, 0.34373907, 0.31934564, 0.29781927,
       0.3271571 , 0.34213698, 0.16753387, 0.17340028, 0.26078943,
       0.26472606, 0.15572967, 0.13960409, 0.4132327 , 0.17616378,
       0.46737687, 0.18395884, 0.31286833, 0.36930105, 0.22607818,
       0.34702385, 0.27615888, 0.19743049, 0.116762  , 0.23814829,
       0.3718311 , 0.16659234, 0.31751265, 0.26206537, 0.3079933 ,
       0.14005857, 0.41211137, 0.15875194, 0.27803403, 0.21690538]), 'delta_distances': array([0., 0., 0., 0., 0., 0., 0., 0., 0., 0., 0., 0., 0., 0., 0., 0., 0.,
       0., 0., 0., 0., 0., 0., 0., 0., 0., 0., 0., 0., 0., 0., 0., 0., 0.,
       0., 0., 0., 0., 0., 0., 0., 0., 0., 0., 0., 0., 0., 0., 0., 0., 0.,
       0., 0., 0., 0., 0., 0., 0., 0., 0., 0., 0., 0., 0., 0., 0., 0., 0.,
       0., 0., 0., 0., 0., 0., 0., 0., 0., 0., 0., 0., 0., 0., 0., 0., 0.,
       0., 0., 0., 0., 0., 0., 0., 0., 0., 0., 0., 0., 0., 0., 0., 0., 0.,
       0., 0., 0., 0., 0., 0., 0., 0., 0., 0., 0., 0., 0., 0., 0., 0., 0.,
       0., 0., 0., 0., 0., 0., 0., 0., 0., 0., 0.]), 'locations': array([ 3, 47,  2, 89, 41, 78, 37, 49, 32, 16, 11,  3, 36, 70, 29, 17,  3,
       77, 42, 68, 61, 81,  3, 51, 29, 68, 85,  8,  9, 58, 76, 35,  3, 55,
        3, 36, 28, 88, 44, 15,  3, 35, 76, 81, 35, 14, 12, 67, 36,  4, 35,
       74,  4, 37, 78,  5, 41, 28,  5, 54, 38, 50,  2, 78, 77,  4, 68,  3,
        2, 47, 50,  6, 35, 43, 77, 34, 75, 48, 75, 36, 37, 57, 84, 80, 36,
       65, 37,  6,  3, 77, 48, 28, 37, 31,  2, 84, 10,  3,  2, 80,  3, 78,
       35, 35, 36, 26, 37,  9, 42, 78, 13, 36,  6, 36,  3, 65, 34, 77,  8,
       47, 76, 77, 75, 55, 78,  4, 86,  7, 57, 35])}, {'ts_index': 95, 'loc': 3, 'gap': 0.08675165973945487, 'distances': array([0.34010815, 0.35337795, 0.34341628, 0.3496349 , 0.10698458,
       0.30622528, 0.39161308, 0.34922995, 0.12977527, 0.14454961,
       0.36554649, 0.38348106, 0.26004037, 0.37564357, 0.31635708,
       0.34785909, 0.23891672, 0.36579505, 0.31369728, 0.15244756,
       0.3266328 , 0.4287581 , 0.24357643, 0.2778088 , 0.41236806,
       0.11247412, 0.23897818, 0.39767361, 0.24949838, 0.43421932,
       0.31538811, 0.37694314, 0.38412063, 0.31224732, 0.14930256,
       0.38594071, 0.13428619, 0.36784997, 0.12015873, 0.10463576,
       0.29834614, 0.22344892, 0.31096086, 0.22267914, 0.17692928,
       0.37656704, 0.26738172, 0.07510437, 0.22218929, 0.22843625,
       0.15653301, 0.28605014, 0.31659108, 0.        , 0.16815114,
       0.36259954, 0.41466451, 0.20268305, 0.3891956 , 0.27852396,
       0.21838233, 0.36405454, 0.29843543, 0.26620568, 0.40838518,
       0.19664814, 0.3045304 , 0.40813613, 0.25790248, 0.41352223,
       0.27341403, 0.10759427, 0.17295184, 0.16906553, 0.42302943,
       0.21673432, 0.25370872, 0.38689255, 0.36487792, 0.24574434,
       0.36050638, 0.30520624, 0.15874705, 0.31542654, 0.37024919,
       0.21908583, 0.39591029, 0.37596534, 0.25085487, 0.1179174 ,
       0.28554075, 0.14331007, 0.29540312, 0.39000229]), 'delta_distances': array([0., 0., 0., 0., 0., 0., 0., 0., 0., 0., 0., 0., 0., 0., 0., 0., 0.,
       0., 0., 0., 0., 0., 0., 0., 0., 0., 0., 0., 0., 0., 0., 0., 0., 0.,
       0., 0., 0., 0., 0., 0., 0., 0., 0., 0., 0., 0., 0., 0., 0., 0., 0.,
       0., 0., 0., 0., 0., 0., 0., 0., 0., 0., 0., 0., 0., 0., 0., 0., 0.,
       0., 0., 0., 0., 0., 0., 0., 0., 0., 0., 0., 0., 0., 0., 0., 0., 0.,
       0., 0., 0., 0., 0., 0., 0., 0., 0.]), 'locations': array([79, 54,  6,  8,  2, 75,  8, 16,  4, 69,  2,  3, 28, 16, 88,  3, 67,
       56, 79,  8, 30, 35,  6, 79, 34,  3,  3, 43, 86, 69, 79, 17,  9, 73,
       79, 49, 32, 18, 78, 35, 36, 35, 37, 77, 35, 42, 77, 16,  6, 49, 38,
       49, 10,  3,  7,  5, 84,  2,  6, 74,  3, 54, 27,  7, 13,  3,  1,  2,
        9,  3, 29,  9, 35, 42, 78, 78, 36,  8, 38,  4,  6, 34,  3, 36, 68,
        2,  5, 41, 74, 53,  4, 42,  9,  6])}, {'ts_index': 198, 'loc': 4, 'gap': 0.07651670881897032, 'distances': array([0.41449681, 0.14100401, 0.30553043, 0.30118795, 0.39940432,
       0.41610536, 0.39799833, 0.37189003, 0.41650704, 0.3966191 ,
       0.40119357, 0.36089238, 0.10918187, 0.39557607, 0.40970176,
       0.25456614, 0.39722577, 0.42020963, 0.34927184, 0.42475374,
       0.395776  , 0.32188196, 0.1791778 , 0.41722349, 0.40865296,
       0.39063123, 0.413555  , 0.3158913 , 0.41260002, 0.26378342,
       0.41472558, 0.37848343, 0.27950073, 0.20736294, 0.15421223,
       0.3026144 , 0.34354739, 0.27626923, 0.39552948, 0.43283721,
       0.3955197 , 0.39706441, 0.33048912, 0.24775763, 0.22585432,
       0.16952955, 0.42601274, 0.3185481 , 0.36748148, 0.40097306,
       0.41922075, 0.40459959, 0.36356889, 0.3034939 , 0.27945235,
       0.32284123, 0.40269722, 0.37241907, 0.37524757, 0.3948352 ,
       0.23920113, 0.40536713, 0.19313935, 0.18556994, 0.32202457,
       0.30627834, 0.26352497, 0.4347544 , 0.34402244, 0.42254096,
       0.40125491, 0.39709059, 0.35659672, 0.        ]), 'delta_distances': array([0., 0., 0., 0., 0., 0., 0., 0., 0., 0., 0., 0., 0., 0., 0., 0., 0.,
       0., 0., 0., 0., 0., 0., 0., 0., 0., 0., 0., 0., 0., 0., 0., 0., 0.,
       0., 0., 0., 0., 0., 0., 0., 0., 0., 0., 0., 0., 0., 0., 0., 0., 0.,
       0., 0., 0., 0., 0., 0., 0., 0., 0., 0., 0., 0., 0., 0., 0., 0., 0.,
       0., 0., 0., 0., 0., 0.]), 'locations': array([37,  5, 37, 46, 75, 47, 82,  2, 57, 28, 16, 36,  6,  5,  7,  6, 58,
       83, 49, 32, 35,  4,  5, 30, 29, 79, 40, 89, 29, 37,  8,  3, 10,  6,
       12, 42,  5,  7, 49, 50, 37, 41, 89, 37,  8, 33,  3, 82, 29,  8, 72,
        4,  3,  4, 15,  3,  4, 36, 37, 78,  6, 74,  6, 50,  7, 79, 12, 73,
       49, 68, 31,  4,  4,  4])}, {'ts_index': 125, 'loc': 1, 'gap': 0.08864082355155511, 'distances': array([0.41004372, 0.21595395, 0.34422456, 0.32833337, 0.37755916,
       0.14586764, 0.23451872, 0.41332579, 0.17141085, 0.10005822,
       0.34575101, 0.41209873, 0.15773429, 0.40783936, 0.41440972,
       0.1979544 , 0.31719204, 0.31279714, 0.11499149, 0.38143096,
       0.42798667, 0.23309336, 0.38955495, 0.37205649, 0.25819583,
       0.22783352, 0.10891619, 0.13208263, 0.06887188, 0.37226107,
       0.18384829, 0.08734673, 0.21464937, 0.26499128, 0.22306556,
       0.35232843, 0.43636695, 0.2059168 , 0.29475119, 0.        ,
       0.40697504, 0.21719554, 0.25344799, 0.22065757, 0.09149361,
       0.34157622, 0.29558355, 0.34944327, 0.14018542, 0.24577447,
       0.32508507, 0.36022955, 0.42852471, 0.34428314, 0.26313889,
       0.42393489, 0.22504513, 0.13314203, 0.30265942, 0.42291182]), 'delta_distances': array([0., 0., 0., 0., 0., 0., 0., 0., 0., 0., 0., 0., 0., 0., 0., 0., 0.,
       0., 0., 0., 0., 0., 0., 0., 0., 0., 0., 0., 0., 0., 0., 0., 0., 0.,
       0., 0., 0., 0., 0., 0., 0., 0., 0., 0., 0., 0., 0., 0., 0., 0., 0.,
       0., 0., 0., 0., 0., 0., 0., 0., 0.]), 'locations': array([ 6, 65, 43, 90, 10, 82,  2,  6, 28, 16,  7, 67, 28, 31, 35,  6, 37,
       26, 83, 83, 29, 35,  2,  9, 53, 49, 52, 35, 75, 42, 77, 76, 49, 63,
       57,  5, 80,  3, 54,  1,  8, 74, 35,  3,  2,  9, 30, 29,  9, 37, 26,
       77,  4, 87, 78, 46, 41, 31,  4, 27])}, {'ts_index': 9, 'loc': 77, 'gap': 0.0659044615421644, 'distances': array([0.19495718, 0.18389667, 0.24439408, 0.15434247, 0.        ,
       0.21024298, 0.18595707, 0.12086601, 0.09173387, 0.15092966,
       0.12382364, 0.29154569, 0.16547979, 0.23287775, 0.25923921,
       0.14979977, 0.11805515, 0.26373075, 0.26438285, 0.20401206,
       0.14764377, 0.26832356, 0.0746643 , 0.14732012, 0.10808581,
       0.16189272, 0.10003954, 0.15394067, 0.09908432, 0.10634618,
       0.1223233 , 0.27609568, 0.10736201, 0.29271669, 0.1462825 ,
       0.27804823, 0.11337136, 0.15375484, 0.25717576, 0.20031145,
       0.07050946, 0.15193626, 0.2248046 , 0.1163532 , 0.10806061,
       0.18599087, 0.18908867, 0.2714683 ]), 'delta_distances': array([0., 0., 0., 0., 0., 0., 0., 0., 0., 0., 0., 0., 0., 0., 0., 0., 0.,
       0., 0., 0., 0., 0., 0., 0., 0., 0., 0., 0., 0., 0., 0., 0., 0., 0.,
       0., 0., 0., 0., 0., 0., 0., 0., 0., 0., 0., 0., 0., 0.]), 'locations': array([24, 73, 49, 42, 77, 30, 41, 22, 19, 15, 17, 70, 17, 68, 60, 60, 73,
       71, 59, 30,  1, 52, 21, 69, 41, 70, 15, 11, 38, 30, 38, 15, 17, 37,
       60, 45, 46, 21, 23, 46, 63, 48, 12, 12, 19, 69, 41, 52])}], 'clusters': array([1, 7, 3, 2, 5, 7, 0, 4, 7, 7, 1, 2, 6, 4, 4, 2, 7, 7, 7, 3, 6, 1,
       7, 5, 7, 6, 1, 1, 3, 5, 3, 2, 4, 3, 7, 1, 0, 2, 1, 7, 7, 0, 4, 3,
       2, 3, 6, 5, 7, 7, 0, 0, 7, 1, 7, 4, 0, 2, 1, 1, 4, 1, 3, 2, 3, 6,
       4, 4, 6, 2, 1, 3, 1, 6, 5, 5, 4, 3, 1, 2, 1, 7, 3, 7, 4, 2, 6, 7,
       4, 2, 2, 7, 2, 7, 1, 4, 3, 2, 3, 3, 4, 1, 2, 3, 2, 1, 2, 7, 7, 1,
       1, 3, 1, 2, 2, 3, 3, 5, 2, 5, 5, 3, 7, 7, 1, 6, 2, 0, 7, 2, 2, 0,
       1, 1, 3, 1, 1, 1, 7, 3, 2, 1, 6, 0, 7, 3, 3, 1, 3, 7, 4, 2, 4, 4,
       6, 0, 1, 1, 7, 1, 3, 1, 1, 3, 5, 7, 3, 2, 3, 1, 5, 3, 5, 3, 2, 7,
       4, 7, 5, 1, 7, 2, 3, 1, 3, 7, 7, 3, 2, 6, 4, 1, 7, 3, 4, 3, 0, 2,
       5, 1]), 'time': 584.8813910484314}}, 'UED': {5: {'RI': 0.524070351758794, 'num_clusters': 2, 'uShapelets': [{'ts_index': 68, 'loc': 0, 'gap': 0.5648903492504527, 'distances': array([0.4653694, 0.6053518, 0.9952874, 1.3692558, 0.2482706, 0.4998344,
       1.3174158, 2.5529684, 0.887946 , 0.304454 , 1.3844508, 0.2210986,
       2.2314462, 0.375426 , 0.3866528, 0.8472672, 2.1249432, 2.5049644,
       2.62141  , 0.5571666, 2.4326252, 0.5756424, 1.0656174, 0.5594822,
       0.4108008, 0.4654492, 0.9893706, 1.0292524, 0.7857812, 0.7095206,
       1.5837632, 0.8418124, 0.4122188, 0.3451444, 0.0660432, 0.2338234,
       1.3056342, 2.2107614, 2.9097356, 0.3525868, 0.3858146, 1.9359552,
       1.3475348, 2.0817944, 0.1728586, 0.7287968, 0.2624042, 1.509439 ,
       0.3431478, 0.457836 , 0.025719 , 1.8050574, 0.474306 , 0.4411152,
       0.6010342, 0.056134 , 0.4713708, 0.3811012, 0.9834348, 0.32521  ,
       1.2142206, 0.394686 , 2.0384694, 0.5736422, 0.6764106, 0.5254166,
       0.5126894, 1.3907176, 0.       , 0.2343802, 0.4643338, 0.1352516,
       2.0714854, 0.5392946, 1.0645602, 0.179808 , 1.1156228, 0.9240678,
       0.2308952, 0.0438852, 0.2559648, 1.0342394, 0.6512468, 0.3553788,
       0.2175224, 0.853722 , 0.480008 , 1.0865764, 1.059323 , 0.7875028,
       1.9953788, 0.7856116, 0.1918154, 0.6601486, 0.7035118, 0.1860684,
       0.4849732, 0.133416 , 1.104823 , 0.9912244, 0.8154972, 0.7813788,
       1.0937064, 1.0157492, 0.7130088, 1.1153878, 0.332856 , 0.3046988,
       0.7855248, 1.1677428, 0.7345556, 0.7204764, 0.1803526, 0.2406274,
       0.2088894, 1.2026022, 0.1886428, 0.0791434, 0.5575328, 0.4760474,
       0.689555 , 1.5291076, 0.5435706, 1.3637564, 0.4833092, 0.8035656,
       0.8687306, 0.2285044, 2.9208124, 0.4425024, 0.9795818, 0.1194218,
       0.56295  , 0.495173 , 0.3988734, 1.184569 , 0.5036608, 0.3292902,
       1.7266142, 0.77042  , 0.4942382, 1.141469 , 0.9040292, 0.669763 ,
       1.8643462, 0.3890778, 1.2006692, 0.1622624, 0.9597476, 0.4556422,
       1.128092 , 0.5588858, 1.0884332, 1.9713624, 0.5437172, 0.5091516,
       1.1203094, 0.6466568, 0.705899 , 0.3629996, 0.2586398, 0.4612332,
       0.2959602, 1.1176484, 2.0943876, 0.3900462, 1.1694406, 1.379239 ,
       1.0431302, 0.0619492, 1.0416356, 0.7394304, 1.2776766, 1.1782014,
       1.6694404, 1.0516382, 0.2330276, 0.9316758, 0.2496406, 0.9955006,
       2.130044 , 0.4845596, 0.0847468, 1.1483492, 0.6207374, 0.361425 ,
       0.3503942, 0.6299718, 0.4203884, 2.2119246, 0.5082908, 1.812991 ,
       0.1005164, 2.5214366, 0.2202292, 0.5103938, 1.4407298, 0.9969782,
       1.0789846, 0.8741902]), 'delta_distances': array([0.2642228, 0.2427068, 0.4493336, 0.2433372, 0.1301424, 0.219212 ,
       0.5456236, 0.6094692, 0.3537344, 0.1892064, 0.4042232, 0.1370956,
       0.3186208, 0.2160744, 0.1926372, 0.3196228, 0.3942376, 0.3636864,
       0.5192392, 0.1856716, 0.524514 , 0.2803164, 0.4122992, 0.2720168,
       0.1873304, 0.2017012, 0.3503368, 0.3687348, 0.266046 , 0.3713256,
       0.5349992, 0.2909256, 0.1790264, 0.200606 , 0.0622928, 0.1415868,
       0.3810004, 0.5292072, 0.4516424, 0.1058572, 0.1946192, 0.269004 ,
       0.3548844, 0.6454492, 0.1161724, 0.4020792, 0.165446 , 0.4145284,
       0.1734788, 0.2304832, 0.0586836, 0.4167568, 0.179394 , 0.1997832,
       0.278934 , 0.0810596, 0.2472896, 0.1792924, 0.3355408, 0.146782 ,
       0.2966884, 0.2495704, 0.3541144, 0.3004808, 0.2505508, 0.2842496,
       0.3253976, 0.3711848, 0.       , 0.2310984, 0.2474832, 0.1486436,
       0.4689032, 0.3578648, 0.4946084, 0.1246428, 0.3313744, 0.4279884,
       0.1735512, 0.0837204, 0.2436332, 0.3302252, 0.2628328, 0.2307036,
       0.1557084, 0.2857704, 0.2914576, 0.26954  , 0.278476 , 0.3401256,
       0.3696496, 0.267586 , 0.15336  , 0.2291632, 0.2641668, 0.1631708,
       0.2488492, 0.1412896, 0.2586116, 0.3523956, 0.3906984, 0.2670768,
       0.3009376, 0.3596328, 0.2439544, 0.3724096, 0.113462 , 0.1031304,
       0.325936 , 0.3083412, 0.2827632, 0.1825444, 0.1611952, 0.185118 ,
       0.1575336, 0.4304268, 0.1215368, 0.092212 , 0.1935596, 0.1544604,
       0.2240284, 0.5259208, 0.2176588, 0.3326968, 0.2235856, 0.3168028,
       0.2546804, 0.1502944, 0.5794696, 0.1985396, 0.3653344, 0.1582344,
       0.210412 , 0.183062 , 0.2184824, 0.2562188, 0.3128376, 0.1831476,
       0.2809608, 0.295464 , 0.190142 , 0.4290132, 0.3218936, 0.2262456,
       0.5953792, 0.1782864, 0.337828 , 0.0883904, 0.2725792, 0.225168 ,
       0.2997176, 0.1500532, 0.4272344, 0.2901692, 0.2876284, 0.2831104,
       0.348952 , 0.2373156, 0.2656496, 0.2512212, 0.1363832, 0.2423624,
       0.1598276, 0.306852 , 0.5376644, 0.1999064, 0.286944 , 0.4220924,
       0.3185808, 0.0585956, 0.3896696, 0.4108856, 0.3551916, 0.3682088,
       0.3605568, 0.3204956, 0.0665796, 0.3973824, 0.1460972, 0.2839468,
       0.3910888, 0.2216656, 0.0722524, 0.49734  , 0.3123916, 0.14257  ,
       0.108406 , 0.19305  , 0.1352324, 0.4035824, 0.2248384, 0.4774124,
       0.1092588, 0.4056448, 0.1435228, 0.239328 , 0.4398076, 0.4005516,
       0.383298 , 0.1948696]), 'locations': array([ 0,  0,  2,  0, 87,  0,  0,  0,  0,  3,  0, 88, 69,  1,  2,  0,  0,
        0,  0, 88, 21,  0,  0,  0, 88, 88,  1,  0,  0,  0,  0,  0,  2,  0,
       89,  2,  0,  0, 21,  0,  0, 71,  0,  0,  1,  1,  0,  0,  0, 89,  0,
        0,  3,  3, 87,  1,  1,  2, 87,  3, 90,  0, 45,  0,  3,  2,  0,  0,
        0,  0,  1,  0,  0,  0,  0,  1,  0,  1,  0,  0,  1,  1, 88,  1,  1,
        1,  2,  3,  0,  0,  0, 90,  2,  0,  0,  0,  0,  3,  0,  0,  2, 88,
        3, 87,  0,  0,  0,  1,  0,  0,  1,  2, 89,  0,  3,  0,  0,  0, 89,
        1, 87,  0,  1, 32,  0, 89,  0, 89, 42,  0,  0,  0,  0,  1,  1,  0,
       88,  0, 83,  0,  1,  2,  0,  3,  0,  1,  0, 88,  0,  0,  0,  0,  0,
       78,  0,  0,  0,  4,  0,  0,  1,  0,  1,  1,  1, 89,  0,  0,  0,  0,
        1,  0,  1,  0,  0,  0,  0,  0,  1,  1,  0, 88,  0,  1,  2,  0,  0,
        0,  1,  0,  3,  0,  1, 73,  0,  2,  0,  2,  0,  1])}], 'clusters': array([1, 1, 1, 0, 1, 1, 1, 0, 1, 1, 0, 1, 0, 1, 1, 1, 0, 0, 0, 1, 0, 1,
       1, 1, 1, 1, 1, 1, 1, 1, 0, 1, 1, 1, 1, 1, 1, 0, 0, 1, 1, 0, 0, 0,
       1, 1, 1, 0, 1, 1, 1, 0, 1, 1, 1, 1, 1, 1, 1, 1, 1, 1, 0, 1, 1, 1,
       1, 0, 1, 1, 1, 1, 0, 1, 1, 1, 1, 1, 1, 1, 1, 1, 1, 1, 1, 1, 1, 1,
       1, 1, 0, 1, 1, 1, 1, 1, 1, 1, 1, 1, 1, 1, 1, 1, 1, 1, 1, 1, 1, 1,
       1, 1, 1, 1, 1, 1, 1, 1, 1, 1, 1, 0, 1, 0, 1, 1, 1, 1, 0, 1, 1, 1,
       1, 1, 1, 1, 1, 1, 0, 1, 1, 1, 1, 1, 0, 1, 1, 1, 1, 1, 1, 1, 1, 0,
       1, 1, 1, 1, 1, 1, 1, 1, 1, 1, 0, 1, 1, 0, 1, 1, 1, 1, 1, 1, 0, 1,
       1, 1, 1, 1, 0, 1, 1, 1, 1, 1, 1, 1, 1, 0, 1, 0, 1, 0, 1, 1, 0, 1,
       1, 1]), 'time': 45.34928584098816}, 24: {'RI': 0.5427638190954774, 'num_clusters': 3, 'uShapelets': [{'ts_index': 28, 'loc': 0, 'gap': 0.3570021661790228, 'distances': array([0.98561975, 0.71070871, 0.65805325, 1.03824625, 1.1636525 ,
       0.61392583, 0.62907313, 0.77858308, 0.74943313, 0.503841  ,
       0.59257871, 2.38760842, 2.64392054, 0.46460821, 0.74585117,
       0.91413892, 1.20233179, 0.893586  , 1.07070404, 0.64286321,
       2.25950542, 0.84676542, 0.83167546, 0.66467862, 1.47281929,
       1.94613358, 0.53229954, 0.71622737, 0.        , 0.81271683,
       0.97594667, 0.61081354, 0.83601254, 0.95734296, 2.04653213,
       0.34399713, 0.95482471, 0.69232433, 2.48240713, 0.59149904,
       0.86134488, 2.73112379, 0.37257946, 1.04993683, 0.50710242,
       0.65521521, 0.69837163, 0.64382108, 0.75726608, 0.90680221,
       0.75455379, 1.79017662, 0.65054358, 0.58478229, 2.66801879,
       0.29645612, 0.81654467, 0.61421096, 2.53300767, 0.72799171,
       1.99825471, 0.64846908, 1.26531662, 0.92727146, 0.84997746,
       0.54731067, 0.57073767, 0.97603992, 0.76205179, 0.59345929,
       0.85676692, 0.56077092, 0.52300442, 0.56678583, 0.89825363,
       0.58394258, 0.84197675, 0.66245621, 0.68533079, 0.56010483,
       0.72348604, 0.63584129, 2.16863696, 0.827692  , 0.68097379,
       0.52564558, 0.09475229, 0.55892362, 0.95398729, 0.93039267,
       0.84770267, 2.16033433, 0.61248046, 0.81661829, 0.6401585 ,
       0.70646179, 0.74958687, 0.76848417, 0.38124275, 0.52308708,
       0.49784021, 1.45445779, 0.5642085 , 1.21101046, 0.81664383,
       0.93006542, 0.45416517, 0.38904167, 0.85250262, 0.62242237,
       0.88674346, 0.51078671, 2.3247475 , 0.84459346, 0.91033758,
       0.78947171, 0.59570396, 0.89789479, 0.3999885 , 0.51270017,
       2.40932746, 0.92853842, 0.81005671, 0.79066246, 0.91923087,
       1.59915779, 0.82087225, 1.12714487, 1.61015279, 0.81473542,
       0.9867045 , 0.67964013, 0.61592075, 0.74291842, 0.85367125,
       0.64584625, 0.87786275, 0.763894  , 0.92448367, 0.88170788,
       0.51616167, 0.832715  , 0.76829112, 0.66700517, 0.97474662,
       0.95397575, 0.63060071, 1.14307208, 0.93668971, 0.69472271,
       0.74677225, 0.91787567, 0.55500708, 2.66279629, 0.657794  ,
       0.79432625, 0.43186112, 0.60799879, 0.87777579, 0.72094629,
       0.92678846, 0.48755054, 1.08028896, 0.87344729, 1.0766565 ,
       2.46513962, 0.86383588, 1.09596008, 0.80553083, 0.64849842,
       0.5786105 , 0.93110933, 0.66909796, 0.93231167, 1.07735083,
       0.79314004, 0.76636437, 0.81016692, 0.72545888, 0.57379621,
       0.93028783, 1.64032096, 0.58592675, 0.23579358, 0.6365285 ,
       0.37099392, 0.33763483, 0.67039658, 0.51888362, 0.93126787,
       0.55520587, 1.14107217, 0.41337317, 2.047521  , 0.45624025,
       0.75993458, 0.40047213, 0.52608262, 0.9155475 , 0.72103675]), 'delta_distances': array([0.20259208, 0.18292608, 0.17091125, 0.22044858, 0.19494567,
       0.12255083, 0.2022145 , 0.20243675, 0.15499208, 0.15395942,
       0.12471417, 0.24297942, 0.28853183, 0.11588933, 0.1797075 ,
       0.22215817, 0.20269133, 0.18253267, 0.25332158, 0.16372642,
       0.36483592, 0.16721717, 0.18885542, 0.16775733, 0.23623392,
       0.2183515 , 0.16920783, 0.18882367, 0.        , 0.23167717,
       0.225096  , 0.17529842, 0.19188258, 0.2108565 , 0.27544333,
       0.09661342, 0.18389   , 0.16098958, 0.314744  , 0.19427417,
       0.16405625, 0.32152342, 0.14439883, 0.26845417, 0.10978108,
       0.14825942, 0.15406225, 0.17970117, 0.19340417, 0.22005658,
       0.22164417, 0.31058225, 0.17196325, 0.20433167, 0.24848958,
       0.13217242, 0.19562308, 0.16631033, 0.23871583, 0.17869283,
       0.32633092, 0.17507833, 0.26320333, 0.16226542, 0.172432  ,
       0.14591783, 0.1590475 , 0.16114125, 0.17092908, 0.18385242,
       0.174659  , 0.15799908, 0.13597725, 0.14213117, 0.21173375,
       0.14804558, 0.15267308, 0.17518317, 0.13006492, 0.14067625,
       0.20666092, 0.16265017, 0.33338783, 0.17513783, 0.16459492,
       0.12161967, 0.0727075 , 0.16670458, 0.16397917, 0.2089585 ,
       0.15393025, 0.38199667, 0.15614083, 0.16869842, 0.18566483,
       0.15285883, 0.16469342, 0.17972358, 0.21511658, 0.13948917,
       0.160399  , 0.16966392, 0.16198717, 0.20926125, 0.1630255 ,
       0.18786258, 0.13088517, 0.10188858, 0.17301808, 0.16519383,
       0.16147183, 0.12118708, 0.23843242, 0.18445575, 0.160656  ,
       0.14481375, 0.16689883, 0.20332883, 0.12076092, 0.119013  ,
       0.232993  , 0.22084742, 0.169186  , 0.14296875, 0.1855515 ,
       0.23527642, 0.160861  , 0.22837508, 0.21903208, 0.18673408,
       0.17530258, 0.14461017, 0.14091433, 0.15946592, 0.18714417,
       0.19024075, 0.16954125, 0.14905967, 0.22515383, 0.16256258,
       0.15742817, 0.21229117, 0.152153  , 0.15393625, 0.26132742,
       0.18242608, 0.12123683, 0.2057175 , 0.15767042, 0.16071133,
       0.16752783, 0.18107767, 0.14081258, 0.25474167, 0.1447685 ,
       0.16505192, 0.13881825, 0.14230617, 0.14353283, 0.16196458,
       0.191523  , 0.13511483, 0.17761675, 0.1431885 , 0.216078  ,
       0.32335958, 0.12502342, 0.19563317, 0.15628875, 0.15640492,
       0.14922825, 0.16427425, 0.16495483, 0.22886558, 0.2309645 ,
       0.164276  , 0.15986283, 0.14739525, 0.14410208, 0.15156675,
       0.171146  , 0.28124117, 0.17584392, 0.11379325, 0.169402  ,
       0.14044817, 0.10481858, 0.13087517, 0.14065233, 0.17408058,
       0.15289392, 0.22071283, 0.13003258, 0.22297358, 0.11014283,
       0.16186675, 0.15202333, 0.15924   , 0.16904558, 0.14858133]), 'locations': array([ 0,  0,  3,  0,  9,  0,  0,  0,  0,  4,  0, 63, 70,  1,  6,  1,  0,
        0,  0,  0, 22,  1,  0,  1,  0, 64,  2,  1,  0,  0,  0,  0,  4,  0,
        0,  2,  0,  0, 23,  2,  0,  0,  0,  0,  1,  0,  0,  0,  0,  0,  1,
        0,  4,  4, 64,  2,  1,  3, 63,  5, 22,  0,  0,  8,  6,  4,  0,  0,
        0,  0,  1,  0,  0,  5,  0,  3,  1,  1,  0,  0,  2,  2,  0,  1,  4,
        1,  2,  4,  0,  0,  0, 22,  3,  0,  1,  1,  6,  6,  0,  0,  3, 64,
        4,  9,  1,  0,  1,  2,  0,  5,  1,  3, 65,  0,  5,  6,  1,  1,  1,
        3, 63,  0,  0,  0,  0,  0,  6,  3,  0,  1,  0,  0,  1,  1,  1,  0,
        0,  6,  0,  0,  3,  2,  0,  3,  0,  2,  3,  0,  6,  0,  6,  1,  3,
        4,  1,  0,  0,  4,  5,  0,  1,  0,  2,  0,  1,  0,  0,  0,  6,  1,
        2,  7,  2,  1,  0,  0,  0,  0,  8,  2,  0,  0,  1,  0,  3,  1,  0,
        0,  1,  0,  4,  0,  2,  6,  0,  2,  0,  2,  0,  0])}, {'ts_index': 125, 'loc': 2, 'gap': 1.2989081038926866, 'distances': array([0.39831087, 0.19894796, 1.13822987, 0.18780121, 2.50159396,
       0.58531792, 0.11559746, 0.21111837, 2.80795479, 0.29872713,
       1.95988292, 0.23567592, 0.25894858, 2.31194821, 0.30962079,
       0.08281046, 2.51041712, 0.32078846, 0.14197608, 0.48147137,
       0.16140129, 0.        , 0.4199    , 0.14176142, 0.40092754,
       0.28722458, 0.33843392, 0.10479562, 0.10169346, 0.13882004,
       0.0398235 , 0.09021475, 0.13342671, 0.15729758]), 'delta_distances': array([0.12830058, 0.10187475, 0.19917225, 0.08951258, 0.28245925,
       0.14441667, 0.08371375, 0.10353667, 0.22029742, 0.11538325,
       0.204782  , 0.09682875, 0.09820917, 0.293992  , 0.110507  ,
       0.05435808, 0.24700433, 0.11393483, 0.07526183, 0.15499958,
       0.10740342, 0.        , 0.13478333, 0.0696865 , 0.13404725,
       0.10938583, 0.10963408, 0.05920942, 0.06631258, 0.08007067,
       0.03346742, 0.05106658, 0.06394392, 0.08107183]), 'locations': array([17,  0, 10,  9, 37,  3,  1,  3, 50,  2, 66,  0,  1, 27,  8,  1, 33,
        3, 19,  0,  3,  2, 24,  8, 20, 13, 22,  8,  0,  8,  8,  2,  8, 10])}], 'clusters': array([1, 1, 1, 1, 2, 1, 1, 1, 1, 1, 1, 2, 0, 1, 1, 1, 2, 1, 1, 1, 0, 1,
       1, 1, 2, 2, 1, 1, 1, 1, 1, 1, 1, 1, 2, 1, 1, 1, 0, 1, 1, 2, 1, 1,
       1, 1, 1, 1, 1, 1, 1, 0, 1, 1, 2, 1, 1, 1, 2, 1, 0, 1, 2, 1, 1, 1,
       1, 1, 1, 1, 1, 1, 1, 1, 1, 1, 1, 1, 1, 1, 1, 1, 2, 1, 1, 1, 1, 1,
       1, 1, 1, 0, 1, 1, 1, 1, 1, 1, 1, 1, 1, 2, 1, 2, 1, 1, 1, 1, 1, 1,
       1, 1, 2, 1, 1, 1, 1, 1, 1, 1, 2, 1, 1, 1, 1, 2, 1, 2, 2, 1, 1, 1,
       1, 1, 1, 1, 1, 1, 1, 1, 1, 1, 1, 1, 1, 1, 1, 2, 1, 1, 1, 1, 1, 2,
       1, 1, 1, 1, 1, 1, 1, 1, 2, 1, 2, 2, 1, 2, 1, 1, 1, 1, 1, 1, 2, 1,
       1, 1, 1, 1, 1, 2, 1, 1, 1, 1, 1, 1, 1, 1, 1, 2, 1, 2, 1, 1, 1, 1,
       1, 1]), 'time': 31.428250074386597}}, 'ED': {24: {'RI': 0.6477386934673367, 'num_clusters': 4, 'uShapelets': [{'ts_index': 143, 'loc': 3, 'gap': 0.05167638060208868, 'distances': array([0.15145545, 0.15597891, 0.06325089, 0.14822598, 0.11582842,
       0.14579604, 0.07891329, 0.14928932, 0.1514342 , 0.05555515,
       0.1683808 , 0.16185836, 0.17912726, 0.07640439, 0.07853856,
       0.06474115, 0.14608288, 0.17225477, 0.15943598, 0.13965616,
       0.14882205, 0.15596745, 0.14927051, 0.14340462, 0.1578692 ,
       0.13827503, 0.06553266, 0.13574217, 0.13019843, 0.1492346 ,
       0.14827982, 0.14934904, 0.05701445, 0.16471657, 0.1746267 ,
       0.08389531, 0.15818919, 0.15384833, 0.16571173, 0.06106184,
       0.14689462, 0.19948022, 0.15822406, 0.15567811, 0.14108707,
       0.14521144, 0.14757322, 0.09130664, 0.11694295, 0.15406362,
       0.13339564, 0.15344299, 0.04092469, 0.04620538, 0.18227669,
       0.121129  , 0.15088924, 0.04859307, 0.16879969, 0.05973249,
       0.13759771, 0.14599031, 0.14233274, 0.11601538, 0.04534737,
       0.07106645, 0.15039585, 0.18214927, 0.13832882, 0.13780776,
       0.14302546, 0.12899493, 0.15098051, 0.13589561, 0.15118097,
       0.15722105, 0.15200407, 0.07904342, 0.14228075, 0.13135107,
       0.14616072, 0.08518584, 0.18998171, 0.14656613, 0.07497192,
       0.10055537, 0.13146278, 0.05790196, 0.11686524, 0.14067125,
       0.15644279, 0.14736778, 0.0747688 , 0.15853124, 0.04908061,
       0.12452054, 0.16010241, 0.06525952, 0.15078835, 0.10759139,
       0.05991387, 0.1375276 , 0.06502589, 0.117891  , 0.14919592,
       0.16793077, 0.05874323, 0.0642009 , 0.15442061, 0.16756586,
       0.06536674, 0.07274822, 0.15674888, 0.14703543, 0.07830953,
       0.14891007, 0.14548239, 0.14654218, 0.14859539, 0.04690368,
       0.1652404 , 0.16773339, 0.14195199, 0.13465584, 0.15092653,
       0.1759093 , 0.15132357, 0.11861314, 0.17075285, 0.15054848,
       0.17211175, 0.1496809 , 0.1409706 , 0.15814221, 0.14511347,
       0.13652876, 0.14151479, 0.14986898, 0.10201275, 0.15810714,
       0.05209693, 0.05267082, 0.15753542, 0.        , 0.19881887,
       0.15648369, 0.15802157, 0.09199868, 0.14991078, 0.17628449,
       0.14357091, 0.10363613, 0.145403  , 0.22595106, 0.13720592,
       0.13822286, 0.12086327, 0.0416751 , 0.15376152, 0.15369428,
       0.14668982, 0.16729394, 0.12867986, 0.13621367, 0.16546682,
       0.18129238, 0.16076164, 0.17289799, 0.14812384, 0.1304864 ,
       0.0949403 , 0.1669497 , 0.05987217, 0.15787545, 0.15092784,
       0.17234118, 0.13969962, 0.14607865, 0.16144163, 0.06574595,
       0.15951682, 0.16255737, 0.13298975, 0.11575666, 0.04224663,
       0.06000463, 0.16210072, 0.14740604, 0.13544637, 0.16877593,
       0.04391773, 0.17355296, 0.1108592 , 0.23594765, 0.07990641,
       0.04666827, 0.15608323, 0.11509926, 0.16384872, 0.14073224]), 'delta_distances': array([0., 0., 0., 0., 0., 0., 0., 0., 0., 0., 0., 0., 0., 0., 0., 0., 0.,
       0., 0., 0., 0., 0., 0., 0., 0., 0., 0., 0., 0., 0., 0., 0., 0., 0.,
       0., 0., 0., 0., 0., 0., 0., 0., 0., 0., 0., 0., 0., 0., 0., 0., 0.,
       0., 0., 0., 0., 0., 0., 0., 0., 0., 0., 0., 0., 0., 0., 0., 0., 0.,
       0., 0., 0., 0., 0., 0., 0., 0., 0., 0., 0., 0., 0., 0., 0., 0., 0.,
       0., 0., 0., 0., 0., 0., 0., 0., 0., 0., 0., 0., 0., 0., 0., 0., 0.,
       0., 0., 0., 0., 0., 0., 0., 0., 0., 0., 0., 0., 0., 0., 0., 0., 0.,
       0., 0., 0., 0., 0., 0., 0., 0., 0., 0., 0., 0., 0., 0., 0., 0., 0.,
       0., 0., 0., 0., 0., 0., 0., 0., 0., 0., 0., 0., 0., 0., 0., 0., 0.,
       0., 0., 0., 0., 0., 0., 0., 0., 0., 0., 0., 0., 0., 0., 0., 0., 0.,
       0., 0., 0., 0., 0., 0., 0., 0., 0., 0., 0., 0., 0., 0., 0., 0., 0.,
       0., 0., 0., 0., 0., 0., 0., 0., 0., 0., 0., 0., 0.]), 'locations': array([71, 71,  2,  0,  0,  0,  0,  0,  0,  3, 45, 63, 69,  1,  6,  0, 71,
        0, 69, 63, 22,  0, 71,  0, 65, 64,  2,  0, 53, 71,  0, 71,  3, 47,
       64,  1, 71,  0, 23,  1,  0, 44, 71, 51, 71,  0, 71,  0,  0, 41,  0,
       25,  4,  3, 64,  1,  0,  3, 63,  5, 21, 71, 70,  0,  6,  3,  0,  0,
        0,  0,  0,  0,  0,  4, 71,  2,  0,  1,  0,  0,  1,  1, 65, 71,  5,
        0,  2,  3,  0, 71,  0, 21,  3,  0,  0,  0,  0,  6, 69,  0,  3, 63,
        3,  1, 71, 71,  1,  1, 71,  0,  1,  2, 65, 71,  6,  4,  0, 71,  0,
        2, 63,  0,  0, 36,  0, 66,  0,  2,  0, 71, 71,  0,  0, 71,  0, 57,
       64,  4,  0, 71,  2,  2,  0,  3, 50, 71, 38,  0,  0, 39,  0,  0,  0,
       53,  0,  0, 56,  4,  0,  0, 71, 34,  2, 71, 71, 45, 71,  0,  0,  0,
        1, 71,  1, 71,  0,  0,  0, 71,  6,  1,  0, 63,  0,  0,  3,  1, 32,
        0,  0,  0,  3, 71,  1,  6,  0,  2, 71,  1,  0, 71])}, {'ts_index': 169, 'loc': 6, 'gap': 0.028467663796899828, 'distances': array([0.06288274, 0.10866739, 0.07352854, 0.06565144, 0.10811675,
       0.08178132, 0.05629031, 0.11303374, 0.14860054, 0.18995251,
       0.08824484, 0.08721716, 0.14058012, 0.07896152, 0.22358971,
       0.06664169, 0.13047981, 0.08291562, 0.14047337, 0.10515376,
       0.08759406, 0.14114246, 0.09215781, 0.07625213, 0.145984  ,
       0.10499616, 0.11588511, 0.14241426, 0.07153644, 0.23908379,
       0.05035399, 0.14054325, 0.13075376, 0.05660482, 0.13228988,
       0.10597713, 0.09939325, 0.10048762, 0.0556362 , 0.08211692,
       0.02874931, 0.19603887, 0.18595391, 0.08243408, 0.06699869,
       0.16649767, 0.20222322, 0.15048201, 0.14986135, 0.04957589,
       0.12764994, 0.11211572, 0.08071695, 0.09154281, 0.03677154,
       0.08872534, 0.05923781, 0.07726047, 0.09838653, 0.06981317,
       0.06694997, 0.08230226, 0.07719531, 0.04284039, 0.12691848,
       0.08973731, 0.10272942, 0.12129079, 0.05819066, 0.10769308,
       0.09076217, 0.22329893, 0.07939983, 0.04712574, 0.05429673,
       0.15852981, 0.08052769, 0.0943755 , 0.07364943, 0.04744502,
       0.13109907, 0.12833004, 0.08588232, 0.16880439, 0.04104628,
       0.04675618, 0.09037481, 0.0502677 , 0.10303373, 0.13574799,
       0.10742264, 0.08391729, 0.14382975, 0.05982592, 0.09451469,
       0.08254366, 0.11719267, 0.0964835 , 0.07748125, 0.10529436,
       0.06772255, 0.05461238, 0.09488617, 0.04274517, 0.16605924,
       0.08780835, 0.05077035, 0.09553657, 0.08432392, 0.10685447,
       0.10900686, 0.05624773, 0.08284026, 0.08109844, 0.05206695,
       0.15236869, 0.06307596, 0.04879654, 0.06624979, 0.13408694,
       0.04675167, 0.04813117, 0.14669632, 0.0551152 , 0.09691295,
       0.04804038, 0.13242097, 0.06862425, 0.11011504, 0.1007695 ,
       0.14633982, 0.11704343, 0.10407625, 0.04674131, 0.        ,
       0.1083366 , 0.08051298, 0.11044111, 0.07344243, 0.11522389,
       0.04514562, 0.09362621, 0.05167033, 0.08054724, 0.08815055,
       0.05353056, 0.11422494, 0.17185372, 0.08231861, 0.12535126,
       0.08862328, 0.11222885, 0.06649029, 0.08947426, 0.16483183,
       0.09415756, 0.09848352, 0.15309508]), 'delta_distances': array([0., 0., 0., 0., 0., 0., 0., 0., 0., 0., 0., 0., 0., 0., 0., 0., 0.,
       0., 0., 0., 0., 0., 0., 0., 0., 0., 0., 0., 0., 0., 0., 0., 0., 0.,
       0., 0., 0., 0., 0., 0., 0., 0., 0., 0., 0., 0., 0., 0., 0., 0., 0.,
       0., 0., 0., 0., 0., 0., 0., 0., 0., 0., 0., 0., 0., 0., 0., 0., 0.,
       0., 0., 0., 0., 0., 0., 0., 0., 0., 0., 0., 0., 0., 0., 0., 0., 0.,
       0., 0., 0., 0., 0., 0., 0., 0., 0., 0., 0., 0., 0., 0., 0., 0., 0.,
       0., 0., 0., 0., 0., 0., 0., 0., 0., 0., 0., 0., 0., 0., 0., 0., 0.,
       0., 0., 0., 0., 0., 0., 0., 0., 0., 0., 0., 0., 0., 0., 0., 0., 0.,
       0., 0., 0., 0., 0., 0., 0., 0., 0., 0., 0., 0., 0., 0., 0., 0., 0.,
       0., 0., 0., 0., 0.]), 'locations': array([ 7,  6,  5, 10,  7,  4,  5,  4,  0, 13,  5,  2,  0,  0, 34,  6,  0,
        6,  2,  0,  5,  5,  6,  6,  7,  5,  0,  0,  4, 55,  7,  0,  0,  5,
        8,  7,  7,  7,  6,  0,  7, 66,  0,  7,  7,  0, 25,  7,  8,  8,  7,
        0,  7,  6,  8,  7,  4,  5,  6,  7,  5,  7,  7,  7,  0,  8,  5,  7,
        7,  7,  4, 31,  8,  6,  5,  1,  7,  0, 11,  6,  7,  7,  5,  0,  6,
        5,  6,  6,  2,  0,  5,  8,  3,  6,  0,  5,  5,  3,  7,  7,  7,  4,
        7,  8,  0,  0,  6,  9,  7,  3,  0,  7,  4,  9,  5,  5,  5,  7,  5,
        4,  6,  6,  1,  5,  7,  7,  5, 12,  7,  4,  0,  7,  5,  5,  6,  6,
        6,  7,  6,  7,  7,  7,  7,  4,  0,  7,  3,  0,  7,  6,  4,  6,  7,
        6,  2,  5,  7,  8])}, {'ts_index': 36, 'loc': 9, 'gap': 0.16282542127403382, 'distances': array([0.0580347 , 0.16700947, 0.09401035, 0.31036816, 0.14182157,
       0.07185878, 0.05847386, 0.        , 0.3242217 , 0.05748724,
       0.27204132, 0.07967   , 0.04431524, 0.28370434, 0.04803863,
       0.06532313, 0.30251874, 0.05896584, 0.08188466, 0.13303547,
       0.08840215, 0.10004849, 0.07287008, 0.06091702, 0.1396791 ,
       0.08325011, 0.05103481]), 'delta_distances': array([0., 0., 0., 0., 0., 0., 0., 0., 0., 0., 0., 0., 0., 0., 0., 0., 0.,
       0., 0., 0., 0., 0., 0., 0., 0., 0., 0.]), 'locations': array([ 1, 11,  5, 39,  5,  6,  9,  9,  0,  4, 66,  1,  4,  0, 11,  9,  0,
        5,  1,  4,  5,  6,  5,  1,  6,  5, 11])}], 'clusters': array([2, 2, 1, 2, 2, 2, 1, 2, 2, 1, 2, 3, 3, 1, 1, 1, 2, 2, 3, 2, 0, 2,
       2, 2, 3, 2, 1, 2, 3, 2, 2, 3, 1, 2, 2, 1, 3, 2, 0, 1, 2, 3, 2, 2,
       2, 2, 2, 2, 2, 2, 2, 0, 1, 1, 3, 2, 2, 1, 3, 1, 0, 3, 3, 2, 1, 1,
       2, 2, 2, 2, 2, 2, 2, 2, 2, 2, 2, 1, 2, 2, 2, 1, 2, 2, 1, 2, 2, 1,
       2, 2, 2, 0, 1, 2, 1, 2, 2, 1, 3, 2, 1, 2, 1, 2, 2, 2, 1, 1, 2, 2,
       1, 1, 3, 2, 1, 2, 2, 2, 2, 1, 2, 2, 2, 3, 2, 2, 2, 2, 2, 2, 2, 2,
       2, 2, 2, 3, 2, 2, 2, 2, 1, 1, 2, 1, 2, 2, 2, 2, 2, 3, 2, 2, 2, 2,
       2, 2, 3, 1, 2, 2, 2, 2, 2, 2, 2, 3, 2, 2, 2, 2, 2, 2, 1, 2, 2, 2,
       2, 2, 2, 1, 2, 2, 2, 2, 1, 1, 3, 2, 2, 2, 1, 2, 2, 2, 1, 1, 3, 2,
       2, 3]), 'time': 35.844268560409546}}}